2,-20,-104,-65,-86,-103,-111,14,7
-72,-44,-1,-81,54,-31,-115,-24,7
36,90,8,69,82,-1,-32,-95,7
-27,-17,36,-52,-21,8,39,-16,7
-40,-72,72,64,79,109,107,78,7
44,11,-14,-75,-79,-70,-18,4,7
-14,30,23,63,6,33,106,-39,7
36,-52,-79,7,26,-14,-75,-24,7
21,30,-36,-43,-64,28,18,-17,7
67,29,56,102,72,34,-2,39,7
28,-7,-57,-116,-87,-22,-25,49,7
34,20,19,51,-1,-5,-25,11,7
13,12,4,-18,49,18,11,15,7
11,-23,-23,19,16,35,9,9,7
-64,-12,-40,5,-25,-15,-31,15,7
-52,-75,-105,-56,-12,12,63,75,7
108,91,83,17,11,-49,-100,-82,7
-6,-33,-94,-11,-23,-47,-73,-40,7
11,-14,3,5,9,-18,-37,-6,7
-37,-36,-29,-14,-17,30,47,17,7
-12,19,127,96,55,19,30,-23,7
62,35,17,-23,-32,18,58,58,7
-6,0,-2,-30,23,4,37,12,7
89,10,86,56,-25,1,3,14,7
28,2,-26,-2,-23,-5,15,3,7
56,-17,-6,23,9,-27,-27,-24,7
24,15,18,35,11,31,-22,28,7
-49,-9,-27,-19,11,19,112,90,7
4,-8,38,49,4,-74,-109,-40,7
-26,25,22,19,2,14,-29,-23,7
-11,3,-94,-31,8,43,4,18,7
11,-6,-8,-18,-16,-42,-69,-14,7
5,-12,-23,45,20,38,61,27,7
66,16,93,-12,-12,16,52,23,7
-7,-21,-19,40,18,-28,-22,-3,7
17,16,-60,-65,-54,-2,-4,-10,7
13,14,39,59,69,24,13,27,7
-45,-6,61,25,-32,-8,-8,12,7
-17,-12,-40,-62,-71,-11,21,-24,7
57,5,-83,13,32,20,-4,-20,7
-45,-7,44,7,2,22,23,4,7
-94,-4,-41,29,13,-2,10,-19,7
3,18,38,-6,7,-22,-9,5,7
-29,-8,3,0,-27,-39,-110,-66,7
-31,-3,29,-21,2,5,25,18,7
51,5,-36,-18,4,36,15,4,7
8,2,-40,-21,-10,-19,29,-17,7
-83,-6,106,54,26,33,26,18,7
-77,-11,-57,-16,-4,-4,27,-9,7
-24,-30,-76,-106,-64,-37,-40,-18,7
45,26,121,57,9,14,27,1,7
98,38,31,24,32,24,40,48,7
-41,-11,-65,-38,-19,-21,-46,-50,7
5,-7,-12,66,38,30,78,44,7
-6,-28,-45,-90,-50,-13,-68,-36,7
-44,24,36,45,35,-32,-47,4,7
71,-20,7,-74,-51,-3,4,32,7
-85,-1,-33,-6,-11,0,20,-51,7
-12,-8,-22,26,21,-2,9,31,7
1,-37,-23,33,14,-6,-30,-31,7
68,30,-16,-39,-1,27,59,3,7
19,25,26,4,6,-13,-65,18,7
-37,-33,-61,-7,18,6,47,1,7
15,-22,-44,-49,-46,-3,15,-11,7
-57,-8,-51,-6,-9,-8,-16,-19,7
12,-14,-26,33,31,19,32,29,7
55,18,-42,15,21,22,31,18,7
-87,-5,-31,79,39,-50,-80,-49,7
-5,-5,-4,-82,-95,-14,28,5,7
32,5,15,44,15,13,15,14,7
24,9,64,8,11,2,-1,-16,7
-76,-7,6,2,-3,13,17,-3,7
-13,-38,-19,24,12,-8,-26,-12,7
0,-3,-104,-60,17,32,65,-5,7
26,24,93,42,-3,-3,-32,23,7
41,10,-48,-24,-6,27,25,27,7
-12,6,6,40,39,-6,-8,-19,7
35,-4,12,-27,-55,-33,-46,10,7
-12,9,34,25,31,28,22,-3,7
26,-5,-24,-28,-3,39,95,35,7
19,-69,-60,-51,-14,-35,-92,-20,7
0,70,46,35,20,-3,8,8,7
-19,16,85,58,16,-4,15,9,7
-6,-34,12,-69,-37,-16,-48,-27,7
23,17,-7,58,29,15,41,14,7
24,-10,-30,-54,0,-2,-10,16,7
-58,-9,-17,-45,-31,-69,-92,-24,7
8,0,28,52,11,15,20,-28,7
34,10,47,24,11,11,40,31,7
-39,-43,17,17,1,-7,-43,-13,7
-10,36,-14,-7,0,-16,-34,-33,7
-28,-19,34,-8,-1,65,88,32,7
5,52,32,-2,-6,-69,-77,-42,7
-49,-60,-11,16,-24,-10,-11,-43,7
35,-53,-101,-27,-3,1,30,63,7
-16,101,55,21,7,-15,-29,-39,7
2,-20,-104,-65,-86,-103,-111,14,7
-72,-44,-1,-81,54,-31,-115,-24,7
36,90,8,69,82,-1,-32,-95,7
-27,-17,36,-52,-21,8,39,-16,7
-40,-72,72,64,79,109,107,78,7
44,11,-14,-75,-79,-70,-18,4,7
-14,30,23,63,6,33,106,-39,7
36,-52,-79,7,26,-14,-75,-24,7
21,30,-36,-43,-64,28,18,-17,7
67,29,56,102,72,34,-2,39,7
28,-7,-57,-116,-87,-22,-25,49,7
34,20,19,51,-1,-5,-25,11,7
13,12,4,-18,49,18,11,15,7
11,-23,-23,19,16,35,9,9,7
-64,-12,-40,5,-25,-15,-31,15,7
-52,-75,-105,-56,-12,12,63,75,7
108,91,83,17,11,-49,-100,-82,7
-6,-33,-94,-11,-23,-47,-73,-40,7
11,-14,3,5,9,-18,-37,-6,7
-37,-36,-29,-14,-17,30,47,17,7
-12,19,127,96,55,19,30,-23,7
62,35,17,-23,-32,18,58,58,7
-6,0,-2,-30,23,4,37,12,7
89,10,86,56,-25,1,3,14,7
28,2,-26,-2,-23,-5,15,3,7
56,-17,-6,23,9,-27,-27,-24,7
24,15,18,35,11,31,-22,28,7
-49,-9,-27,-19,11,19,112,90,7
4,-8,38,49,4,-74,-109,-40,7
-26,25,22,19,2,14,-29,-23,7
-11,3,-94,-31,8,43,4,18,7
11,-6,-8,-18,-16,-42,-69,-14,7
5,-12,-23,45,20,38,61,27,7
66,16,93,-12,-12,16,52,23,7
-7,-21,-19,40,18,-28,-22,-3,7
17,16,-60,-65,-54,-2,-4,-10,7
13,14,39,59,69,24,13,27,7
-45,-6,61,25,-32,-8,-8,12,7
-17,-12,-40,-62,-71,-11,21,-24,7
57,5,-83,13,32,20,-4,-20,7
-45,-7,44,7,2,22,23,4,7
-94,-4,-41,29,13,-2,10,-19,7
3,18,38,-6,7,-22,-9,5,7
-29,-8,3,0,-27,-39,-110,-66,7
-31,-3,29,-21,2,5,25,18,7
51,5,-36,-18,4,36,15,4,7
8,2,-40,-21,-10,-19,29,-17,7
-83,-6,106,54,26,33,26,18,7
-77,-11,-57,-16,-4,-4,27,-9,7
-24,-30,-76,-106,-64,-37,-40,-18,7
45,26,121,57,9,14,27,1,7
98,38,31,24,32,24,40,48,7
-41,-11,-65,-38,-19,-21,-46,-50,7
5,-7,-12,66,38,30,78,44,7
-6,-28,-45,-90,-50,-13,-68,-36,7
-44,24,36,45,35,-32,-47,4,7
71,-20,7,-74,-51,-3,4,32,7
-85,-1,-33,-6,-11,0,20,-51,7
-12,-8,-22,26,21,-2,9,31,7
1,-37,-23,33,14,-6,-30,-31,7
68,30,-16,-39,-1,27,59,3,7
19,25,26,4,6,-13,-65,18,7
-37,-33,-61,-7,18,6,47,1,7
15,-22,-44,-49,-46,-3,15,-11,7
-57,-8,-51,-6,-9,-8,-16,-19,7
12,-14,-26,33,31,19,32,29,7
55,18,-42,15,21,22,31,18,7
-87,-5,-31,79,39,-50,-80,-49,7
-5,-5,-4,-82,-95,-14,28,5,7
32,5,15,44,15,13,15,14,7
24,9,64,8,11,2,-1,-16,7
-76,-7,6,2,-3,13,17,-3,7
-13,-38,-19,24,12,-8,-26,-12,7
0,-3,-104,-60,17,32,65,-5,7
26,24,93,42,-3,-3,-32,23,7
41,10,-48,-24,-6,27,25,27,7
-12,6,6,40,39,-6,-8,-19,7
35,-4,12,-27,-55,-33,-46,10,7
-12,9,34,25,31,28,22,-3,7
26,-5,-24,-28,-3,39,95,35,7
19,-69,-60,-51,-14,-35,-92,-20,7
0,70,46,35,20,-3,8,8,7
-19,16,85,58,16,-4,15,9,7
-6,-34,12,-69,-37,-16,-48,-27,7
23,17,-7,58,29,15,41,14,7
24,-10,-30,-54,0,-2,-10,16,7
-58,-9,-17,-45,-31,-69,-92,-24,7
8,0,28,52,11,15,20,-28,7
34,10,47,24,11,11,40,31,7
-39,-43,17,17,1,-7,-43,-13,7
-10,36,-14,-7,0,-16,-34,-33,7
-28,-19,34,-8,-1,65,88,32,7
5,52,32,-2,-6,-69,-77,-42,7
-49,-60,-11,16,-24,-10,-11,-43,7
35,-53,-101,-27,-3,1,30,63,7
-16,101,55,21,7,-15,-29,-39,7
-6,13,-1,-29,-23,40,69,0,7
23,-40,8,-3,-5,5,18,25,7
-29,-6,48,4,1,-4,-17,-7,7
40,1,-41,6,10,2,24,55,7
-33,3,49,49,8,-11,-29,-4,7
42,38,-53,-35,14,16,46,8,7
-24,-31,-4,-1,-12,-14,-38,-41,7
11,-25,4,-3,-10,-9,-11,-15,7
49,19,16,16,13,10,-44,-15,7
63,36,48,43,5,-20,-29,20,7
-95,-47,-40,-19,5,19,66,-17,7
27,34,16,-15,-12,3,16,-12,7
1,16,-11,-16,-12,13,-13,7,7
-16,-27,30,22,30,-17,-24,-8,7
37,29,-57,-43,-27,-11,-12,46,7
13,-9,2,25,-11,-21,33,-1,7
-54,-22,7,20,15,49,58,-56,7
19,23,-34,-30,-6,6,-2,25,7
28,-7,-57,-116,-87,-22,-25,49,7
34,20,19,51,-1,-5,-25,11,7
13,12,4,-18,49,18,11,15,7
11,-23,-23,19,16,35,9,9,7
-64,-12,-40,5,-25,-15,-31,15,7
-52,-75,-105,-56,-12,12,63,75,7
108,91,83,17,11,-49,-100,-82,7
-6,-33,-94,-11,-23,-47,-73,-40,7
11,-14,3,5,9,-18,-37,-6,7
-37,-36,-29,-14,-17,30,47,17,7
-12,19,127,96,55,19,30,-23,7
62,35,17,-23,-32,18,58,58,7
-6,0,-2,-30,23,4,37,12,7
89,10,86,56,-25,1,3,14,7
28,2,-26,-2,-23,-5,15,3,7
56,-17,-6,23,9,-27,-27,-24,7
24,15,18,35,11,31,-22,28,7
-49,-9,-27,-19,11,19,112,90,7
4,-8,38,49,4,-74,-109,-40,7
-26,25,22,19,2,14,-29,-23,7
-11,3,-94,-31,8,43,4,18,7
11,-6,-8,-18,-16,-42,-69,-14,7
5,-12,-23,45,20,38,61,27,7
66,16,93,-12,-12,16,52,23,7
-7,-21,-19,40,18,-28,-22,-3,7
17,16,-60,-65,-54,-2,-4,-10,7
13,14,39,59,69,24,13,27,7
-45,-6,61,25,-32,-8,-8,12,7
-17,-12,-40,-62,-71,-11,21,-24,7
57,5,-83,13,32,20,-4,-20,7
-45,-7,44,7,2,22,23,4,7
-94,-4,-41,29,13,-2,10,-19,7
3,18,38,-6,7,-22,-9,5,7
-29,-8,3,0,-27,-39,-110,-66,7
-31,-3,29,-21,2,5,25,18,7
51,5,-36,-18,4,36,15,4,7
8,2,-40,-21,-10,-19,29,-17,7
-83,-6,106,54,26,33,26,18,7
-77,-11,-57,-16,-4,-4,27,-9,7
-24,-30,-76,-106,-64,-37,-40,-18,7
45,26,121,57,9,14,27,1,7
98,38,31,24,32,24,40,48,7
-41,-11,-65,-38,-19,-21,-46,-50,7
5,-7,-12,66,38,30,78,44,7
-6,-28,-45,-90,-50,-13,-68,-36,7
-44,24,36,45,35,-32,-47,4,7
71,-20,7,-74,-51,-3,4,32,7
-85,-1,-33,-6,-11,0,20,-51,7
-12,-8,-22,26,21,-2,9,31,7
1,-37,-23,33,14,-6,-30,-31,7
68,30,-16,-39,-1,27,59,3,7
19,25,26,4,6,-13,-65,18,7
-37,-33,-61,-7,18,6,47,1,7
15,-22,-44,-49,-46,-3,15,-11,7
-57,-8,-51,-6,-9,-8,-16,-19,7
12,-14,-26,33,31,19,32,29,7
55,18,-42,15,21,22,31,18,7
-87,-5,-31,79,39,-50,-80,-49,7
-5,-5,-4,-82,-95,-14,28,5,7
32,5,15,44,15,13,15,14,7
24,9,64,8,11,2,-1,-16,7
-76,-7,6,2,-3,13,17,-3,7
-13,-38,-19,24,12,-8,-26,-12,7
0,-3,-104,-60,17,32,65,-5,7
26,24,93,42,-3,-3,-32,23,7
41,10,-48,-24,-6,27,25,27,7
-12,6,6,40,39,-6,-8,-19,7
35,-4,12,-27,-55,-33,-46,10,7
-12,9,34,25,31,28,22,-3,7
26,-5,-24,-28,-3,39,95,35,7
19,-69,-60,-51,-14,-35,-92,-20,7
0,70,46,35,20,-3,8,8,7
-19,16,85,58,16,-4,15,9,7
-6,-34,12,-69,-37,-16,-48,-27,7
23,17,-7,58,29,15,41,14,7
24,-10,-30,-54,0,-2,-10,16,7
-58,-9,-17,-45,-31,-69,-92,-24,7
8,0,28,52,11,15,20,-28,7
34,10,47,24,11,11,40,31,7
-39,-43,17,17,1,-7,-43,-13,7
-10,36,-14,-7,0,-16,-34,-33,7
-28,-19,34,-8,-1,65,88,32,7
5,52,32,-2,-6,-69,-77,-42,7
-49,-60,-11,16,-24,-10,-11,-43,7
35,-53,-101,-27,-3,1,30,63,7
-16,101,55,21,7,-15,-29,-39,7
-6,13,-1,-29,-23,40,69,0,7
23,-40,8,-3,-5,5,18,25,7
-29,-6,48,4,1,-4,-17,-7,7
40,1,-41,6,10,2,24,55,7
-33,3,49,49,8,-11,-29,-4,7
42,38,-53,-35,14,16,46,8,7
-24,-31,-4,-1,-12,-14,-38,-41,7
11,-25,4,-3,-10,-9,-11,-15,7
49,19,16,16,13,10,-44,-15,7
63,36,48,43,5,-20,-29,20,7
-95,-47,-40,-19,5,19,66,-17,7
27,34,16,-15,-12,3,16,-12,7
1,16,-11,-16,-12,13,-13,7,7
-16,-27,30,22,30,-17,-24,-8,7
37,29,-57,-43,-27,-11,-12,46,7
13,-9,2,25,-11,-21,33,-1,7
-54,-22,7,20,15,49,58,-56,7
19,23,-34,-30,-6,6,-2,25,7
0,18,6,-7,4,-15,-76,-19,7
0,-68,5,-26,4,5,7,2,7
26,30,68,32,8,15,42,41,7
-35,-18,37,37,22,32,62,-27,7
81,4,-87,-11,-9,-49,-38,-24,7
-43,-13,-9,-68,-24,23,42,3,7
47,22,29,35,12,-29,-42,19,7
-61,-24,-23,41,22,-2,-68,-46,7
-7,0,-3,-40,-43,10,33,16,7
6,21,-9,26,18,4,19,-18,7
-19,-63,-36,-27,-8,1,-1,-4,7
-16,-1,9,16,10,-6,24,17,7
9,20,44,47,10,-5,-21,6,7
-39,10,-41,-28,5,28,31,-6,7
-2,22,-53,-9,18,21,36,24,7
-1,27,-1,-42,-31,-23,-12,1,7
-10,-16,-58,7,23,39,49,11,7
37,1,31,60,11,-21,-46,-34,7
-6,18,-88,-37,-24,-20,-20,41,7
-31,-9,47,-20,-20,-19,-6,-8,7
63,-13,-63,-41,-16,11,5,8,7
0,46,62,25,10,-6,-26,14,7
-22,-54,-78,-11,2,13,23,-13,7
7,-19,-20,-3,13,-20,-41,-8,7
-11,3,-94,-31,8,43,4,18,7
11,-6,-8,-18,-16,-42,-69,-14,7
5,-12,-23,45,20,38,61,27,7
66,16,93,-12,-12,16,52,23,7
-7,-21,-19,40,18,-28,-22,-3,7
17,16,-60,-65,-54,-2,-4,-10,7
13,14,39,59,69,24,13,27,7
-45,-6,61,25,-32,-8,-8,12,7
-17,-12,-40,-62,-71,-11,21,-24,7
57,5,-83,13,32,20,-4,-20,7
-45,-7,44,7,2,22,23,4,7
-94,-4,-41,29,13,-2,10,-19,7
3,18,38,-6,7,-22,-9,5,7
-29,-8,3,0,-27,-39,-110,-66,7
-31,-3,29,-21,2,5,25,18,7
51,5,-36,-18,4,36,15,4,7
8,2,-40,-21,-10,-19,29,-17,7
-83,-6,106,54,26,33,26,18,7
-77,-11,-57,-16,-4,-4,27,-9,7
-24,-30,-76,-106,-64,-37,-40,-18,7
45,26,121,57,9,14,27,1,7
98,38,31,24,32,24,40,48,7
-41,-11,-65,-38,-19,-21,-46,-50,7
5,-7,-12,66,38,30,78,44,7
-6,-28,-45,-90,-50,-13,-68,-36,7
-44,24,36,45,35,-32,-47,4,7
71,-20,7,-74,-51,-3,4,32,7
-85,-1,-33,-6,-11,0,20,-51,7
-12,-8,-22,26,21,-2,9,31,7
1,-37,-23,33,14,-6,-30,-31,7
68,30,-16,-39,-1,27,59,3,7
19,25,26,4,6,-13,-65,18,7
-37,-33,-61,-7,18,6,47,1,7
15,-22,-44,-49,-46,-3,15,-11,7
-57,-8,-51,-6,-9,-8,-16,-19,7
12,-14,-26,33,31,19,32,29,7
55,18,-42,15,21,22,31,18,7
-87,-5,-31,79,39,-50,-80,-49,7
-5,-5,-4,-82,-95,-14,28,5,7
32,5,15,44,15,13,15,14,7
24,9,64,8,11,2,-1,-16,7
-76,-7,6,2,-3,13,17,-3,7
-13,-38,-19,24,12,-8,-26,-12,7
0,-3,-104,-60,17,32,65,-5,7
26,24,93,42,-3,-3,-32,23,7
41,10,-48,-24,-6,27,25,27,7
-12,6,6,40,39,-6,-8,-19,7
35,-4,12,-27,-55,-33,-46,10,7
-12,9,34,25,31,28,22,-3,7
26,-5,-24,-28,-3,39,95,35,7
19,-69,-60,-51,-14,-35,-92,-20,7
0,70,46,35,20,-3,8,8,7
-19,16,85,58,16,-4,15,9,7
-6,-34,12,-69,-37,-16,-48,-27,7
23,17,-7,58,29,15,41,14,7
24,-10,-30,-54,0,-2,-10,16,7
-58,-9,-17,-45,-31,-69,-92,-24,7
8,0,28,52,11,15,20,-28,7
34,10,47,24,11,11,40,31,7
-39,-43,17,17,1,-7,-43,-13,7
-10,36,-14,-7,0,-16,-34,-33,7
-28,-19,34,-8,-1,65,88,32,7
5,52,32,-2,-6,-69,-77,-42,7
-49,-60,-11,16,-24,-10,-11,-43,7
35,-53,-101,-27,-3,1,30,63,7
-16,101,55,21,7,-15,-29,-39,7
-6,13,-1,-29,-23,40,69,0,7
23,-40,8,-3,-5,5,18,25,7
-29,-6,48,4,1,-4,-17,-7,7
40,1,-41,6,10,2,24,55,7
-33,3,49,49,8,-11,-29,-4,7
42,38,-53,-35,14,16,46,8,7
-24,-31,-4,-1,-12,-14,-38,-41,7
11,-25,4,-3,-10,-9,-11,-15,7
49,19,16,16,13,10,-44,-15,7
63,36,48,43,5,-20,-29,20,7
-95,-47,-40,-19,5,19,66,-17,7
27,34,16,-15,-12,3,16,-12,7
1,16,-11,-16,-12,13,-13,7,7
-16,-27,30,22,30,-17,-24,-8,7
37,29,-57,-43,-27,-11,-12,46,7
13,-9,2,25,-11,-21,33,-1,7
-54,-22,7,20,15,49,58,-56,7
19,23,-34,-30,-6,6,-2,25,7
0,18,6,-7,4,-15,-76,-19,7
0,-68,5,-26,4,5,7,2,7
26,30,68,32,8,15,42,41,7
-35,-18,37,37,22,32,62,-27,7
81,4,-87,-11,-9,-49,-38,-24,7
-43,-13,-9,-68,-24,23,42,3,7
47,22,29,35,12,-29,-42,19,7
-61,-24,-23,41,22,-2,-68,-46,7
-7,0,-3,-40,-43,10,33,16,7
6,21,-9,26,18,4,19,-18,7
-19,-63,-36,-27,-8,1,-1,-4,7
-16,-1,9,16,10,-6,24,17,7
9,20,44,47,10,-5,-21,6,7
-39,10,-41,-28,5,28,31,-6,7
-2,22,-53,-9,18,21,36,24,7
-1,27,-1,-42,-31,-23,-12,1,7
-10,-16,-58,7,23,39,49,11,7
37,1,31,60,11,-21,-46,-34,7
-6,18,-88,-37,-24,-20,-20,41,7
-31,-9,47,-20,-20,-19,-6,-8,7
63,-13,-63,-41,-16,11,5,8,7
0,46,62,25,10,-6,-26,14,7
-22,-54,-78,-11,2,13,23,-13,7
7,-19,-20,-3,13,-20,-41,-8,7
13,31,96,47,6,22,35,2,7
11,-23,-45,-24,-14,-5,-4,5,7
-9,-16,-28,13,13,-9,-20,-2,7
3,9,6,11,0,10,36,21,7
-6,11,21,-63,-39,-1,-5,-20,7
-27,-2,-60,12,14,-1,-9,-27,7
34,9,20,-20,6,2,7,-8,7
-15,-2,-17,-49,-12,-9,-25,0,7
-35,14,34,33,-10,-6,33,1,7
14,-11,38,28,10,-15,-27,7,7
-3,13,-26,-1,-18,-14,-21,-2,7
4,-19,-42,-4,11,14,-5,-11,7
-4,5,18,-15,5,14,39,7,7
2,-7,-11,-27,-24,-34,-44,-2,7
22,10,45,64,33,31,57,15,7
16,36,-1,-7,-3,23,64,20,7
-40,-18,10,44,27,-17,-53,-46,7
120,28,8,-10,-22,6,83,75,7
-98,-36,27,-48,-24,-31,-128,-99,7
7,-7,2,8,-3,24,100,-26,7
45,26,121,57,9,14,27,1,7
98,38,31,24,32,24,40,48,7
-41,-11,-65,-38,-19,-21,-46,-50,7
5,-7,-12,66,38,30,78,44,7
-6,-28,-45,-90,-50,-13,-68,-36,7
-44,24,36,45,35,-32,-47,4,7
71,-20,7,-74,-51,-3,4,32,7
-85,-1,-33,-6,-11,0,20,-51,7
-12,-8,-22,26,21,-2,9,31,7
1,-37,-23,33,14,-6,-30,-31,7
68,30,-16,-39,-1,27,59,3,7
19,25,26,4,6,-13,-65,18,7
-37,-33,-61,-7,18,6,47,1,7
15,-22,-44,-49,-46,-3,15,-11,7
-57,-8,-51,-6,-9,-8,-16,-19,7
12,-14,-26,33,31,19,32,29,7
55,18,-42,15,21,22,31,18,7
-87,-5,-31,79,39,-50,-80,-49,7
-5,-5,-4,-82,-95,-14,28,5,7
32,5,15,44,15,13,15,14,7
24,9,64,8,11,2,-1,-16,7
-76,-7,6,2,-3,13,17,-3,7
-13,-38,-19,24,12,-8,-26,-12,7
0,-3,-104,-60,17,32,65,-5,7
26,24,93,42,-3,-3,-32,23,7
41,10,-48,-24,-6,27,25,27,7
-12,6,6,40,39,-6,-8,-19,7
35,-4,12,-27,-55,-33,-46,10,7
-12,9,34,25,31,28,22,-3,7
26,-5,-24,-28,-3,39,95,35,7
19,-69,-60,-51,-14,-35,-92,-20,7
0,70,46,35,20,-3,8,8,7
-19,16,85,58,16,-4,15,9,7
-6,-34,12,-69,-37,-16,-48,-27,7
23,17,-7,58,29,15,41,14,7
24,-10,-30,-54,0,-2,-10,16,7
-58,-9,-17,-45,-31,-69,-92,-24,7
8,0,28,52,11,15,20,-28,7
34,10,47,24,11,11,40,31,7
-39,-43,17,17,1,-7,-43,-13,7
-10,36,-14,-7,0,-16,-34,-33,7
-28,-19,34,-8,-1,65,88,32,7
5,52,32,-2,-6,-69,-77,-42,7
-49,-60,-11,16,-24,-10,-11,-43,7
35,-53,-101,-27,-3,1,30,63,7
-16,101,55,21,7,-15,-29,-39,7
-6,13,-1,-29,-23,40,69,0,7
23,-40,8,-3,-5,5,18,25,7
-29,-6,48,4,1,-4,-17,-7,7
40,1,-41,6,10,2,24,55,7
-33,3,49,49,8,-11,-29,-4,7
42,38,-53,-35,14,16,46,8,7
-24,-31,-4,-1,-12,-14,-38,-41,7
11,-25,4,-3,-10,-9,-11,-15,7
49,19,16,16,13,10,-44,-15,7
63,36,48,43,5,-20,-29,20,7
-95,-47,-40,-19,5,19,66,-17,7
27,34,16,-15,-12,3,16,-12,7
1,16,-11,-16,-12,13,-13,7,7
-16,-27,30,22,30,-17,-24,-8,7
37,29,-57,-43,-27,-11,-12,46,7
13,-9,2,25,-11,-21,33,-1,7
-54,-22,7,20,15,49,58,-56,7
19,23,-34,-30,-6,6,-2,25,7
0,18,6,-7,4,-15,-76,-19,7
0,-68,5,-26,4,5,7,2,7
26,30,68,32,8,15,42,41,7
-35,-18,37,37,22,32,62,-27,7
81,4,-87,-11,-9,-49,-38,-24,7
-43,-13,-9,-68,-24,23,42,3,7
47,22,29,35,12,-29,-42,19,7
-61,-24,-23,41,22,-2,-68,-46,7
-7,0,-3,-40,-43,10,33,16,7
6,21,-9,26,18,4,19,-18,7
-19,-63,-36,-27,-8,1,-1,-4,7
-16,-1,9,16,10,-6,24,17,7
9,20,44,47,10,-5,-21,6,7
-39,10,-41,-28,5,28,31,-6,7
-2,22,-53,-9,18,21,36,24,7
-1,27,-1,-42,-31,-23,-12,1,7
-10,-16,-58,7,23,39,49,11,7
37,1,31,60,11,-21,-46,-34,7
-6,18,-88,-37,-24,-20,-20,41,7
-31,-9,47,-20,-20,-19,-6,-8,7
63,-13,-63,-41,-16,11,5,8,7
0,46,62,25,10,-6,-26,14,7
-22,-54,-78,-11,2,13,23,-13,7
7,-19,-20,-3,13,-20,-41,-8,7
13,31,96,47,6,22,35,2,7
11,-23,-45,-24,-14,-5,-4,5,7
-9,-16,-28,13,13,-9,-20,-2,7
3,9,6,11,0,10,36,21,7
-6,11,21,-63,-39,-1,-5,-20,7
-27,-2,-60,12,14,-1,-9,-27,7
34,9,20,-20,6,2,7,-8,7
-15,-2,-17,-49,-12,-9,-25,0,7
-35,14,34,33,-10,-6,33,1,7
14,-11,38,28,10,-15,-27,7,7
-3,13,-26,-1,-18,-14,-21,-2,7
4,-19,-42,-4,11,14,-5,-11,7
-4,5,18,-15,5,14,39,7,7
2,-7,-11,-27,-24,-34,-44,-2,7
22,10,45,64,33,31,57,15,7
16,36,-1,-7,-3,23,64,20,7
-40,-18,10,44,27,-17,-53,-46,7
120,28,8,-10,-22,6,83,75,7
-98,-36,27,-48,-24,-31,-128,-99,7
7,-7,2,8,-3,24,100,-26,7
34,-7,-19,-13,25,10,10,41,7
-5,-44,-40,1,-8,-7,-23,-10,7
21,22,2,14,-5,10,44,41,7
0,24,-40,-34,-31,-32,-32,6,7
-7,13,17,26,13,11,14,-8,7
-29,2,-45,3,10,-34,-67,-27,7
17,9,39,-4,-2,11,13,65,7
1,-46,-52,11,1,-1,-13,3,7
9,-9,-41,-27,0,-7,19,20,7
-10,3,43,0,-17,-33,-43,-36,7
-20,-15,-67,-51,-20,1,26,-4,7
15,26,45,4,10,8,-8,13,7
1,-4,-9,5,0,15,32,2,7
-30,-8,13,21,7,-29,-78,-29,7
-2,-5,37,14,13,-13,-48,-43,7
17,8,-48,-1,-6,-2,7,3,7
-26,-30,44,-34,-24,4,6,-11,7
26,51,-19,0,14,22,49,24,7
-1,-53,-9,8,20,5,6,-6,7
42,6,40,17,-10,0,-31,19,7
24,9,64,8,11,2,-1,-16,7
-76,-7,6,2,-3,13,17,-3,7
-13,-38,-19,24,12,-8,-26,-12,7
0,-3,-104,-60,17,32,65,-5,7
26,24,93,42,-3,-3,-32,23,7
41,10,-48,-24,-6,27,25,27,7
-12,6,6,40,39,-6,-8,-19,7
35,-4,12,-27,-55,-33,-46,10,7
-12,9,34,25,31,28,22,-3,7
26,-5,-24,-28,-3,39,95,35,7
19,-69,-60,-51,-14,-35,-92,-20,7
0,70,46,35,20,-3,8,8,7
-19,16,85,58,16,-4,15,9,7
-6,-34,12,-69,-37,-16,-48,-27,7
23,17,-7,58,29,15,41,14,7
24,-10,-30,-54,0,-2,-10,16,7
-58,-9,-17,-45,-31,-69,-92,-24,7
8,0,28,52,11,15,20,-28,7
34,10,47,24,11,11,40,31,7
-39,-43,17,17,1,-7,-43,-13,7
-10,36,-14,-7,0,-16,-34,-33,7
-28,-19,34,-8,-1,65,88,32,7
5,52,32,-2,-6,-69,-77,-42,7
-49,-60,-11,16,-24,-10,-11,-43,7
35,-53,-101,-27,-3,1,30,63,7
-16,101,55,21,7,-15,-29,-39,7
-6,13,-1,-29,-23,40,69,0,7
23,-40,8,-3,-5,5,18,25,7
-29,-6,48,4,1,-4,-17,-7,7
40,1,-41,6,10,2,24,55,7
-33,3,49,49,8,-11,-29,-4,7
42,38,-53,-35,14,16,46,8,7
-24,-31,-4,-1,-12,-14,-38,-41,7
11,-25,4,-3,-10,-9,-11,-15,7
49,19,16,16,13,10,-44,-15,7
63,36,48,43,5,-20,-29,20,7
-95,-47,-40,-19,5,19,66,-17,7
27,34,16,-15,-12,3,16,-12,7
1,16,-11,-16,-12,13,-13,7,7
-16,-27,30,22,30,-17,-24,-8,7
37,29,-57,-43,-27,-11,-12,46,7
13,-9,2,25,-11,-21,33,-1,7
-54,-22,7,20,15,49,58,-56,7
19,23,-34,-30,-6,6,-2,25,7
0,18,6,-7,4,-15,-76,-19,7
0,-68,5,-26,4,5,7,2,7
26,30,68,32,8,15,42,41,7
-35,-18,37,37,22,32,62,-27,7
81,4,-87,-11,-9,-49,-38,-24,7
-43,-13,-9,-68,-24,23,42,3,7
47,22,29,35,12,-29,-42,19,7
-61,-24,-23,41,22,-2,-68,-46,7
-7,0,-3,-40,-43,10,33,16,7
6,21,-9,26,18,4,19,-18,7
-19,-63,-36,-27,-8,1,-1,-4,7
-16,-1,9,16,10,-6,24,17,7
9,20,44,47,10,-5,-21,6,7
-39,10,-41,-28,5,28,31,-6,7
-2,22,-53,-9,18,21,36,24,7
-1,27,-1,-42,-31,-23,-12,1,7
-10,-16,-58,7,23,39,49,11,7
37,1,31,60,11,-21,-46,-34,7
-6,18,-88,-37,-24,-20,-20,41,7
-31,-9,47,-20,-20,-19,-6,-8,7
63,-13,-63,-41,-16,11,5,8,7
0,46,62,25,10,-6,-26,14,7
-22,-54,-78,-11,2,13,23,-13,7
7,-19,-20,-3,13,-20,-41,-8,7
13,31,96,47,6,22,35,2,7
11,-23,-45,-24,-14,-5,-4,5,7
-9,-16,-28,13,13,-9,-20,-2,7
3,9,6,11,0,10,36,21,7
-6,11,21,-63,-39,-1,-5,-20,7
-27,-2,-60,12,14,-1,-9,-27,7
34,9,20,-20,6,2,7,-8,7
-15,-2,-17,-49,-12,-9,-25,0,7
-35,14,34,33,-10,-6,33,1,7
14,-11,38,28,10,-15,-27,7,7
-3,13,-26,-1,-18,-14,-21,-2,7
4,-19,-42,-4,11,14,-5,-11,7
-4,5,18,-15,5,14,39,7,7
2,-7,-11,-27,-24,-34,-44,-2,7
22,10,45,64,33,31,57,15,7
16,36,-1,-7,-3,23,64,20,7
-40,-18,10,44,27,-17,-53,-46,7
120,28,8,-10,-22,6,83,75,7
-98,-36,27,-48,-24,-31,-128,-99,7
7,-7,2,8,-3,24,100,-26,7
34,-7,-19,-13,25,10,10,41,7
-5,-44,-40,1,-8,-7,-23,-10,7
21,22,2,14,-5,10,44,41,7
0,24,-40,-34,-31,-32,-32,6,7
-7,13,17,26,13,11,14,-8,7
-29,2,-45,3,10,-34,-67,-27,7
17,9,39,-4,-2,11,13,65,7
1,-46,-52,11,1,-1,-13,3,7
9,-9,-41,-27,0,-7,19,20,7
-10,3,43,0,-17,-33,-43,-36,7
-20,-15,-67,-51,-20,1,26,-4,7
15,26,45,4,10,8,-8,13,7
1,-4,-9,5,0,15,32,2,7
-30,-8,13,21,7,-29,-78,-29,7
-2,-5,37,14,13,-13,-48,-43,7
17,8,-48,-1,-6,-2,7,3,7
-26,-30,44,-34,-24,4,6,-11,7
26,51,-19,0,14,22,49,24,7
-1,-53,-9,8,20,5,6,-6,7
42,6,40,17,-10,0,-31,19,7
-5,13,33,-1,25,-13,-25,-26,7
-2,-6,12,-21,-52,-10,4,8,7
14,25,21,41,9,-23,-7,17,7
0,-31,-100,-66,-4,1,-9,-9,7
-19,38,24,60,27,3,-13,-11,7
9,-27,-21,-16,9,11,42,29,7
35,21,15,-11,-20,7,-6,27,7
-15,28,80,30,10,-21,-43,-32,7
-4,-28,6,30,-9,-6,-8,-19,7
-39,-23,-3,-4,10,40,51,17,7
-11,29,7,-25,-13,-29,-22,-43,7
0,-19,-12,26,17,5,-11,-1,7
-4,-12,-69,-24,0,5,-9,0,7
12,9,6,7,0,6,19,25,7
-12,-10,-4,-7,-14,5,-22,-1,7
-29,4,-30,22,15,-17,-25,-31,7
-12,-32,-1,-31,-42,-19,11,10,7
24,10,-34,-3,39,46,59,22,7
19,17,2,28,-3,-21,-18,0,7
-53,18,69,-35,-27,-13,-32,-9,7
35,-53,-101,-27,-3,1,30,63,7
-16,101,55,21,7,-15,-29,-39,7
-6,13,-1,-29,-23,40,69,0,7
23,-40,8,-3,-5,5,18,25,7
-29,-6,48,4,1,-4,-17,-7,7
40,1,-41,6,10,2,24,55,7
-33,3,49,49,8,-11,-29,-4,7
42,38,-53,-35,14,16,46,8,7
-24,-31,-4,-1,-12,-14,-38,-41,7
11,-25,4,-3,-10,-9,-11,-15,7
49,19,16,16,13,10,-44,-15,7
63,36,48,43,5,-20,-29,20,7
-95,-47,-40,-19,5,19,66,-17,7
27,34,16,-15,-12,3,16,-12,7
1,16,-11,-16,-12,13,-13,7,7
-16,-27,30,22,30,-17,-24,-8,7
37,29,-57,-43,-27,-11,-12,46,7
13,-9,2,25,-11,-21,33,-1,7
-54,-22,7,20,15,49,58,-56,7
19,23,-34,-30,-6,6,-2,25,7
0,18,6,-7,4,-15,-76,-19,7
0,-68,5,-26,4,5,7,2,7
26,30,68,32,8,15,42,41,7
-35,-18,37,37,22,32,62,-27,7
81,4,-87,-11,-9,-49,-38,-24,7
-43,-13,-9,-68,-24,23,42,3,7
47,22,29,35,12,-29,-42,19,7
-61,-24,-23,41,22,-2,-68,-46,7
-7,0,-3,-40,-43,10,33,16,7
6,21,-9,26,18,4,19,-18,7
-19,-63,-36,-27,-8,1,-1,-4,7
-16,-1,9,16,10,-6,24,17,7
9,20,44,47,10,-5,-21,6,7
-39,10,-41,-28,5,28,31,-6,7
-2,22,-53,-9,18,21,36,24,7
-1,27,-1,-42,-31,-23,-12,1,7
-10,-16,-58,7,23,39,49,11,7
37,1,31,60,11,-21,-46,-34,7
-6,18,-88,-37,-24,-20,-20,41,7
-31,-9,47,-20,-20,-19,-6,-8,7
63,-13,-63,-41,-16,11,5,8,7
0,46,62,25,10,-6,-26,14,7
-22,-54,-78,-11,2,13,23,-13,7
7,-19,-20,-3,13,-20,-41,-8,7
13,31,96,47,6,22,35,2,7
11,-23,-45,-24,-14,-5,-4,5,7
-9,-16,-28,13,13,-9,-20,-2,7
3,9,6,11,0,10,36,21,7
-6,11,21,-63,-39,-1,-5,-20,7
-27,-2,-60,12,14,-1,-9,-27,7
34,9,20,-20,6,2,7,-8,7
-15,-2,-17,-49,-12,-9,-25,0,7
-35,14,34,33,-10,-6,33,1,7
14,-11,38,28,10,-15,-27,7,7
-3,13,-26,-1,-18,-14,-21,-2,7
4,-19,-42,-4,11,14,-5,-11,7
-4,5,18,-15,5,14,39,7,7
2,-7,-11,-27,-24,-34,-44,-2,7
22,10,45,64,33,31,57,15,7
16,36,-1,-7,-3,23,64,20,7
-40,-18,10,44,27,-17,-53,-46,7
120,28,8,-10,-22,6,83,75,7
-98,-36,27,-48,-24,-31,-128,-99,7
7,-7,2,8,-3,24,100,-26,7
34,-7,-19,-13,25,10,10,41,7
-5,-44,-40,1,-8,-7,-23,-10,7
21,22,2,14,-5,10,44,41,7
0,24,-40,-34,-31,-32,-32,6,7
-7,13,17,26,13,11,14,-8,7
-29,2,-45,3,10,-34,-67,-27,7
17,9,39,-4,-2,11,13,65,7
1,-46,-52,11,1,-1,-13,3,7
9,-9,-41,-27,0,-7,19,20,7
-10,3,43,0,-17,-33,-43,-36,7
-20,-15,-67,-51,-20,1,26,-4,7
15,26,45,4,10,8,-8,13,7
1,-4,-9,5,0,15,32,2,7
-30,-8,13,21,7,-29,-78,-29,7
-2,-5,37,14,13,-13,-48,-43,7
17,8,-48,-1,-6,-2,7,3,7
-26,-30,44,-34,-24,4,6,-11,7
26,51,-19,0,14,22,49,24,7
-1,-53,-9,8,20,5,6,-6,7
42,6,40,17,-10,0,-31,19,7
-5,13,33,-1,25,-13,-25,-26,7
-2,-6,12,-21,-52,-10,4,8,7
14,25,21,41,9,-23,-7,17,7
0,-31,-100,-66,-4,1,-9,-9,7
-19,38,24,60,27,3,-13,-11,7
9,-27,-21,-16,9,11,42,29,7
35,21,15,-11,-20,7,-6,27,7
-15,28,80,30,10,-21,-43,-32,7
-4,-28,6,30,-9,-6,-8,-19,7
-39,-23,-3,-4,10,40,51,17,7
-11,29,7,-25,-13,-29,-22,-43,7
0,-19,-12,26,17,5,-11,-1,7
-4,-12,-69,-24,0,5,-9,0,7
12,9,6,7,0,6,19,25,7
-12,-10,-4,-7,-14,5,-22,-1,7
-29,4,-30,22,15,-17,-25,-31,7
-12,-32,-1,-31,-42,-19,11,10,7
24,10,-34,-3,39,46,59,22,7
19,17,2,28,-3,-21,-18,0,7
-53,18,69,-35,-27,-13,-32,-9,7
-1,-6,-25,-8,-7,-1,-19,-9,7
-8,3,68,41,2,-2,-2,8,7
2,-8,-27,15,31,23,26,-13,7
23,21,26,13,-12,4,23,31,7
-5,-28,-60,-15,1,4,9,-5,7
-8,3,7,-20,2,3,-21,3,7
4,-16,19,10,-10,-5,-24,-11,7
-35,-29,-21,-23,-11,13,68,12,7
30,44,-41,22,31,-14,-46,2,7
-67,19,43,-7,-41,-31,-68,-52,7
-7,15,21,-21,-34,4,31,8,7
1,-24,5,-22,-10,-3,13,1,7
-7,3,3,45,44,21,37,20,7
29,3,8,-2,7,14,10,10,7
12,8,-22,1,27,-2,7,-30,7
-22,-30,-4,-42,-49,-22,-16,13,7
24,-13,-64,43,6,13,31,31,7
-32,-15,-50,-21,7,-28,-52,-38,7
26,14,30,-32,-4,18,18,13,7
57,15,-53,80,64,29,56,22,7
-13,23,94,-58,-43,-50,-47,-17,7
24,-21,-33,52,33,22,27,11,7
9,-24,-59,-12,-21,-21,-9,-42,7
-23,36,62,-10,23,10,6,4,7
0,18,6,-7,4,-15,-76,-19,7
0,-68,5,-26,4,5,7,2,7
26,30,68,32,8,15,42,41,7
-35,-18,37,37,22,32,62,-27,7
81,4,-87,-11,-9,-49,-38,-24,7
-43,-13,-9,-68,-24,23,42,3,7
47,22,29,35,12,-29,-42,19,7
-61,-24,-23,41,22,-2,-68,-46,7
-7,0,-3,-40,-43,10,33,16,7
6,21,-9,26,18,4,19,-18,7
-19,-63,-36,-27,-8,1,-1,-4,7
-16,-1,9,16,10,-6,24,17,7
9,20,44,47,10,-5,-21,6,7
-39,10,-41,-28,5,28,31,-6,7
-2,22,-53,-9,18,21,36,24,7
-1,27,-1,-42,-31,-23,-12,1,7
-10,-16,-58,7,23,39,49,11,7
37,1,31,60,11,-21,-46,-34,7
-6,18,-88,-37,-24,-20,-20,41,7
-31,-9,47,-20,-20,-19,-6,-8,7
63,-13,-63,-41,-16,11,5,8,7
0,46,62,25,10,-6,-26,14,7
-22,-54,-78,-11,2,13,23,-13,7
7,-19,-20,-3,13,-20,-41,-8,7
13,31,96,47,6,22,35,2,7
11,-23,-45,-24,-14,-5,-4,5,7
-9,-16,-28,13,13,-9,-20,-2,7
3,9,6,11,0,10,36,21,7
-6,11,21,-63,-39,-1,-5,-20,7
-27,-2,-60,12,14,-1,-9,-27,7
34,9,20,-20,6,2,7,-8,7
-15,-2,-17,-49,-12,-9,-25,0,7
-35,14,34,33,-10,-6,33,1,7
14,-11,38,28,10,-15,-27,7,7
-3,13,-26,-1,-18,-14,-21,-2,7
4,-19,-42,-4,11,14,-5,-11,7
-4,5,18,-15,5,14,39,7,7
2,-7,-11,-27,-24,-34,-44,-2,7
22,10,45,64,33,31,57,15,7
16,36,-1,-7,-3,23,64,20,7
-40,-18,10,44,27,-17,-53,-46,7
120,28,8,-10,-22,6,83,75,7
-98,-36,27,-48,-24,-31,-128,-99,7
7,-7,2,8,-3,24,100,-26,7
34,-7,-19,-13,25,10,10,41,7
-5,-44,-40,1,-8,-7,-23,-10,7
21,22,2,14,-5,10,44,41,7
0,24,-40,-34,-31,-32,-32,6,7
-7,13,17,26,13,11,14,-8,7
-29,2,-45,3,10,-34,-67,-27,7
17,9,39,-4,-2,11,13,65,7
1,-46,-52,11,1,-1,-13,3,7
9,-9,-41,-27,0,-7,19,20,7
-10,3,43,0,-17,-33,-43,-36,7
-20,-15,-67,-51,-20,1,26,-4,7
15,26,45,4,10,8,-8,13,7
1,-4,-9,5,0,15,32,2,7
-30,-8,13,21,7,-29,-78,-29,7
-2,-5,37,14,13,-13,-48,-43,7
17,8,-48,-1,-6,-2,7,3,7
-26,-30,44,-34,-24,4,6,-11,7
26,51,-19,0,14,22,49,24,7
-1,-53,-9,8,20,5,6,-6,7
42,6,40,17,-10,0,-31,19,7
-5,13,33,-1,25,-13,-25,-26,7
-2,-6,12,-21,-52,-10,4,8,7
14,25,21,41,9,-23,-7,17,7
0,-31,-100,-66,-4,1,-9,-9,7
-19,38,24,60,27,3,-13,-11,7
9,-27,-21,-16,9,11,42,29,7
35,21,15,-11,-20,7,-6,27,7
-15,28,80,30,10,-21,-43,-32,7
-4,-28,6,30,-9,-6,-8,-19,7
-39,-23,-3,-4,10,40,51,17,7
-11,29,7,-25,-13,-29,-22,-43,7
0,-19,-12,26,17,5,-11,-1,7
-4,-12,-69,-24,0,5,-9,0,7
12,9,6,7,0,6,19,25,7
-12,-10,-4,-7,-14,5,-22,-1,7
-29,4,-30,22,15,-17,-25,-31,7
-12,-32,-1,-31,-42,-19,11,10,7
24,10,-34,-3,39,46,59,22,7
19,17,2,28,-3,-21,-18,0,7
-53,18,69,-35,-27,-13,-32,-9,7
-1,-6,-25,-8,-7,-1,-19,-9,7
-8,3,68,41,2,-2,-2,8,7
2,-8,-27,15,31,23,26,-13,7
23,21,26,13,-12,4,23,31,7
-5,-28,-60,-15,1,4,9,-5,7
-8,3,7,-20,2,3,-21,3,7
4,-16,19,10,-10,-5,-24,-11,7
-35,-29,-21,-23,-11,13,68,12,7
30,44,-41,22,31,-14,-46,2,7
-67,19,43,-7,-41,-31,-68,-52,7
-7,15,21,-21,-34,4,31,8,7
1,-24,5,-22,-10,-3,13,1,7
-7,3,3,45,44,21,37,20,7
29,3,8,-2,7,14,10,10,7
12,8,-22,1,27,-2,7,-30,7
-22,-30,-4,-42,-49,-22,-16,13,7
24,-13,-64,43,6,13,31,31,7
-32,-15,-50,-21,7,-28,-52,-38,7
26,14,30,-32,-4,18,18,13,7
57,15,-53,80,64,29,56,22,7
-13,23,94,-58,-43,-50,-47,-17,7
24,-21,-33,52,33,22,27,11,7
9,-24,-59,-12,-21,-21,-9,-42,7
-23,36,62,-10,23,10,6,4,7
5,-4,-23,-68,-38,2,1,4,7
2,-14,37,15,27,19,19,18,7
0,-12,-5,-73,-55,-25,28,-7,7
20,0,31,43,27,-7,-60,-1,7
2,4,-69,28,16,4,5,-6,7
4,-15,-66,-38,-9,14,30,11,7
-12,15,77,30,17,24,49,44,7
-1,-48,-81,-32,-34,-38,-73,-40,7
14,76,127,96,36,31,11,10,7
18,-26,-29,-80,-51,-12,-22,-20,7
-29,-8,-33,32,27,-20,-1,-24,7
-17,-9,-13,-8,-12,-20,3,-2,7
4,-4,8,43,1,2,-12,-7,7
17,23,32,10,37,7,-5,3,7
-13,-14,54,-13,-44,17,26,-30,7
89,-5,-33,21,34,12,10,40,7
-23,-10,-18,-66,-50,0,50,-6,7
-1,9,102,52,16,-8,-67,2,7
10,-18,-11,26,28,-10,-39,25,7
-32,51,-3,-11,-5,16,28,-42,7
63,-13,-63,-41,-16,11,5,8,7
0,46,62,25,10,-6,-26,14,7
-22,-54,-78,-11,2,13,23,-13,7
7,-19,-20,-3,13,-20,-41,-8,7
13,31,96,47,6,22,35,2,7
11,-23,-45,-24,-14,-5,-4,5,7
-9,-16,-28,13,13,-9,-20,-2,7
3,9,6,11,0,10,36,21,7
-6,11,21,-63,-39,-1,-5,-20,7
-27,-2,-60,12,14,-1,-9,-27,7
34,9,20,-20,6,2,7,-8,7
-15,-2,-17,-49,-12,-9,-25,0,7
-35,14,34,33,-10,-6,33,1,7
14,-11,38,28,10,-15,-27,7,7
-3,13,-26,-1,-18,-14,-21,-2,7
4,-19,-42,-4,11,14,-5,-11,7
-4,5,18,-15,5,14,39,7,7
2,-7,-11,-27,-24,-34,-44,-2,7
22,10,45,64,33,31,57,15,7
16,36,-1,-7,-3,23,64,20,7
-40,-18,10,44,27,-17,-53,-46,7
120,28,8,-10,-22,6,83,75,7
-98,-36,27,-48,-24,-31,-128,-99,7
7,-7,2,8,-3,24,100,-26,7
34,-7,-19,-13,25,10,10,41,7
-5,-44,-40,1,-8,-7,-23,-10,7
21,22,2,14,-5,10,44,41,7
0,24,-40,-34,-31,-32,-32,6,7
-7,13,17,26,13,11,14,-8,7
-29,2,-45,3,10,-34,-67,-27,7
17,9,39,-4,-2,11,13,65,7
1,-46,-52,11,1,-1,-13,3,7
9,-9,-41,-27,0,-7,19,20,7
-10,3,43,0,-17,-33,-43,-36,7
-20,-15,-67,-51,-20,1,26,-4,7
15,26,45,4,10,8,-8,13,7
1,-4,-9,5,0,15,32,2,7
-30,-8,13,21,7,-29,-78,-29,7
-2,-5,37,14,13,-13,-48,-43,7
17,8,-48,-1,-6,-2,7,3,7
-26,-30,44,-34,-24,4,6,-11,7
26,51,-19,0,14,22,49,24,7
-1,-53,-9,8,20,5,6,-6,7
42,6,40,17,-10,0,-31,19,7
-5,13,33,-1,25,-13,-25,-26,7
-2,-6,12,-21,-52,-10,4,8,7
14,25,21,41,9,-23,-7,17,7
0,-31,-100,-66,-4,1,-9,-9,7
-19,38,24,60,27,3,-13,-11,7
9,-27,-21,-16,9,11,42,29,7
35,21,15,-11,-20,7,-6,27,7
-15,28,80,30,10,-21,-43,-32,7
-4,-28,6,30,-9,-6,-8,-19,7
-39,-23,-3,-4,10,40,51,17,7
-11,29,7,-25,-13,-29,-22,-43,7
0,-19,-12,26,17,5,-11,-1,7
-4,-12,-69,-24,0,5,-9,0,7
12,9,6,7,0,6,19,25,7
-12,-10,-4,-7,-14,5,-22,-1,7
-29,4,-30,22,15,-17,-25,-31,7
-12,-32,-1,-31,-42,-19,11,10,7
24,10,-34,-3,39,46,59,22,7
19,17,2,28,-3,-21,-18,0,7
-53,18,69,-35,-27,-13,-32,-9,7
-1,-6,-25,-8,-7,-1,-19,-9,7
-8,3,68,41,2,-2,-2,8,7
2,-8,-27,15,31,23,26,-13,7
23,21,26,13,-12,4,23,31,7
-5,-28,-60,-15,1,4,9,-5,7
-8,3,7,-20,2,3,-21,3,7
4,-16,19,10,-10,-5,-24,-11,7
-35,-29,-21,-23,-11,13,68,12,7
30,44,-41,22,31,-14,-46,2,7
-67,19,43,-7,-41,-31,-68,-52,7
-7,15,21,-21,-34,4,31,8,7
1,-24,5,-22,-10,-3,13,1,7
-7,3,3,45,44,21,37,20,7
29,3,8,-2,7,14,10,10,7
12,8,-22,1,27,-2,7,-30,7
-22,-30,-4,-42,-49,-22,-16,13,7
24,-13,-64,43,6,13,31,31,7
-32,-15,-50,-21,7,-28,-52,-38,7
26,14,30,-32,-4,18,18,13,7
57,15,-53,80,64,29,56,22,7
-13,23,94,-58,-43,-50,-47,-17,7
24,-21,-33,52,33,22,27,11,7
9,-24,-59,-12,-21,-21,-9,-42,7
-23,36,62,-10,23,10,6,4,7
5,-4,-23,-68,-38,2,1,4,7
2,-14,37,15,27,19,19,18,7
0,-12,-5,-73,-55,-25,28,-7,7
20,0,31,43,27,-7,-60,-1,7
2,4,-69,28,16,4,5,-6,7
4,-15,-66,-38,-9,14,30,11,7
-12,15,77,30,17,24,49,44,7
-1,-48,-81,-32,-34,-38,-73,-40,7
14,76,127,96,36,31,11,10,7
18,-26,-29,-80,-51,-12,-22,-20,7
-29,-8,-33,32,27,-20,-1,-24,7
-17,-9,-13,-8,-12,-20,3,-2,7
4,-4,8,43,1,2,-12,-7,7
17,23,32,10,37,7,-5,3,7
-13,-14,54,-13,-44,17,26,-30,7
89,-5,-33,21,34,12,10,40,7
-23,-10,-18,-66,-50,0,50,-6,7
-1,9,102,52,16,-8,-67,2,7
10,-18,-11,26,28,-10,-39,25,7
-32,51,-3,-11,-5,16,28,-42,7
27,-36,-17,19,20,2,-13,14,7
-52,-17,-11,-21,-25,-5,24,9,7
3,15,-61,-2,19,-14,-4,-15,7
16,17,8,-21,-13,-3,-30,-2,7
15,-12,0,-11,0,10,46,-3,7
15,-6,-33,16,4,-8,9,15,7
17,-23,0,49,39,22,-27,41,7
-47,5,-21,-49,-8,5,37,-8,7
8,2,-9,-68,-61,-22,-14,-16,7
-18,18,20,31,-1,-30,-23,-20,7
13,29,6,-1,-17,16,21,23,7
3,9,21,36,24,-13,-16,-15,7
-5,7,35,22,-8,0,13,28,7
-12,-8,40,-73,-13,3,11,-13,7
-35,-6,-37,21,0,13,36,28,7
-9,-7,-18,9,6,5,-35,-48,7
-11,-9,1,25,10,4,31,-2,7
9,-4,-45,6,6,-14,-40,-12,7
-12,-8,12,-8,-3,-1,44,-10,7
14,4,32,14,-23,-26,-62,-11,7
-40,-18,10,44,27,-17,-53,-46,7
120,28,8,-10,-22,6,83,75,7
-98,-36,27,-48,-24,-31,-128,-99,7
7,-7,2,8,-3,24,100,-26,7
34,-7,-19,-13,25,10,10,41,7
-5,-44,-40,1,-8,-7,-23,-10,7
21,22,2,14,-5,10,44,41,7
0,24,-40,-34,-31,-32,-32,6,7
-7,13,17,26,13,11,14,-8,7
-29,2,-45,3,10,-34,-67,-27,7
17,9,39,-4,-2,11,13,65,7
1,-46,-52,11,1,-1,-13,3,7
9,-9,-41,-27,0,-7,19,20,7
-10,3,43,0,-17,-33,-43,-36,7
-20,-15,-67,-51,-20,1,26,-4,7
15,26,45,4,10,8,-8,13,7
1,-4,-9,5,0,15,32,2,7
-30,-8,13,21,7,-29,-78,-29,7
-2,-5,37,14,13,-13,-48,-43,7
17,8,-48,-1,-6,-2,7,3,7
-26,-30,44,-34,-24,4,6,-11,7
26,51,-19,0,14,22,49,24,7
-1,-53,-9,8,20,5,6,-6,7
42,6,40,17,-10,0,-31,19,7
-5,13,33,-1,25,-13,-25,-26,7
-2,-6,12,-21,-52,-10,4,8,7
14,25,21,41,9,-23,-7,17,7
0,-31,-100,-66,-4,1,-9,-9,7
-19,38,24,60,27,3,-13,-11,7
9,-27,-21,-16,9,11,42,29,7
35,21,15,-11,-20,7,-6,27,7
-15,28,80,30,10,-21,-43,-32,7
-4,-28,6,30,-9,-6,-8,-19,7
-39,-23,-3,-4,10,40,51,17,7
-11,29,7,-25,-13,-29,-22,-43,7
0,-19,-12,26,17,5,-11,-1,7
-4,-12,-69,-24,0,5,-9,0,7
12,9,6,7,0,6,19,25,7
-12,-10,-4,-7,-14,5,-22,-1,7
-29,4,-30,22,15,-17,-25,-31,7
-12,-32,-1,-31,-42,-19,11,10,7
24,10,-34,-3,39,46,59,22,7
19,17,2,28,-3,-21,-18,0,7
-53,18,69,-35,-27,-13,-32,-9,7
-1,-6,-25,-8,-7,-1,-19,-9,7
-8,3,68,41,2,-2,-2,8,7
2,-8,-27,15,31,23,26,-13,7
23,21,26,13,-12,4,23,31,7
-5,-28,-60,-15,1,4,9,-5,7
-8,3,7,-20,2,3,-21,3,7
4,-16,19,10,-10,-5,-24,-11,7
-35,-29,-21,-23,-11,13,68,12,7
30,44,-41,22,31,-14,-46,2,7
-67,19,43,-7,-41,-31,-68,-52,7
-7,15,21,-21,-34,4,31,8,7
1,-24,5,-22,-10,-3,13,1,7
-7,3,3,45,44,21,37,20,7
29,3,8,-2,7,14,10,10,7
12,8,-22,1,27,-2,7,-30,7
-22,-30,-4,-42,-49,-22,-16,13,7
24,-13,-64,43,6,13,31,31,7
-32,-15,-50,-21,7,-28,-52,-38,7
26,14,30,-32,-4,18,18,13,7
57,15,-53,80,64,29,56,22,7
-13,23,94,-58,-43,-50,-47,-17,7
24,-21,-33,52,33,22,27,11,7
9,-24,-59,-12,-21,-21,-9,-42,7
-23,36,62,-10,23,10,6,4,7
5,-4,-23,-68,-38,2,1,4,7
2,-14,37,15,27,19,19,18,7
0,-12,-5,-73,-55,-25,28,-7,7
20,0,31,43,27,-7,-60,-1,7
2,4,-69,28,16,4,5,-6,7
4,-15,-66,-38,-9,14,30,11,7
-12,15,77,30,17,24,49,44,7
-1,-48,-81,-32,-34,-38,-73,-40,7
14,76,127,96,36,31,11,10,7
18,-26,-29,-80,-51,-12,-22,-20,7
-29,-8,-33,32,27,-20,-1,-24,7
-17,-9,-13,-8,-12,-20,3,-2,7
4,-4,8,43,1,2,-12,-7,7
17,23,32,10,37,7,-5,3,7
-13,-14,54,-13,-44,17,26,-30,7
89,-5,-33,21,34,12,10,40,7
-23,-10,-18,-66,-50,0,50,-6,7
-1,9,102,52,16,-8,-67,2,7
10,-18,-11,26,28,-10,-39,25,7
-32,51,-3,-11,-5,16,28,-42,7
27,-36,-17,19,20,2,-13,14,7
-52,-17,-11,-21,-25,-5,24,9,7
3,15,-61,-2,19,-14,-4,-15,7
16,17,8,-21,-13,-3,-30,-2,7
15,-12,0,-11,0,10,46,-3,7
15,-6,-33,16,4,-8,9,15,7
17,-23,0,49,39,22,-27,41,7
-47,5,-21,-49,-8,5,37,-8,7
8,2,-9,-68,-61,-22,-14,-16,7
-18,18,20,31,-1,-30,-23,-20,7
13,29,6,-1,-17,16,21,23,7
3,9,21,36,24,-13,-16,-15,7
-5,7,35,22,-8,0,13,28,7
-12,-8,40,-73,-13,3,11,-13,7
-35,-6,-37,21,0,13,36,28,7
-9,-7,-18,9,6,5,-35,-48,7
-11,-9,1,25,10,4,31,-2,7
9,-4,-45,6,6,-14,-40,-12,7
-12,-8,12,-8,-3,-1,44,-10,7
14,4,32,14,-23,-26,-62,-11,7
4,-4,-35,-3,46,14,5,4,7
-41,-12,73,17,-11,-3,10,3,7
-9,-5,40,-55,-86,-35,-11,2,7
53,33,-17,62,29,19,27,22,7
-35,-19,-11,-11,21,-5,-28,-14,7
1,2,-22,54,20,15,11,-9,7
9,-8,-69,-35,40,10,-18,3,7
-11,3,56,6,-32,19,47,26,7
2,2,45,-38,-14,-27,-27,-8,7
-66,-49,-82,-19,-22,0,-5,-1,7
11,72,56,5,11,14,12,-13,7
26,4,-7,-5,-1,-6,-4,1,7
-22,16,36,20,15,20,56,8,7
29,-31,-100,19,7,-12,-58,3,7
-8,10,-11,10,1,-2,-10,11,7
-15,0,52,-34,-17,0,15,-15,7
-10,-20,-49,7,12,11,-15,-22,7
25,38,58,18,3,-2,26,9,7
-70,-23,-46,51,41,11,-17,-23,7
31,-1,-38,-61,-17,-8,6,43,7
-26,-30,44,-34,-24,4,6,-11,7
26,51,-19,0,14,22,49,24,7
-1,-53,-9,8,20,5,6,-6,7
42,6,40,17,-10,0,-31,19,7
-5,13,33,-1,25,-13,-25,-26,7
-2,-6,12,-21,-52,-10,4,8,7
14,25,21,41,9,-23,-7,17,7
0,-31,-100,-66,-4,1,-9,-9,7
-19,38,24,60,27,3,-13,-11,7
9,-27,-21,-16,9,11,42,29,7
35,21,15,-11,-20,7,-6,27,7
-15,28,80,30,10,-21,-43,-32,7
-4,-28,6,30,-9,-6,-8,-19,7
-39,-23,-3,-4,10,40,51,17,7
-11,29,7,-25,-13,-29,-22,-43,7
0,-19,-12,26,17,5,-11,-1,7
-4,-12,-69,-24,0,5,-9,0,7
12,9,6,7,0,6,19,25,7
-12,-10,-4,-7,-14,5,-22,-1,7
-29,4,-30,22,15,-17,-25,-31,7
-12,-32,-1,-31,-42,-19,11,10,7
24,10,-34,-3,39,46,59,22,7
19,17,2,28,-3,-21,-18,0,7
-53,18,69,-35,-27,-13,-32,-9,7
-1,-6,-25,-8,-7,-1,-19,-9,7
-8,3,68,41,2,-2,-2,8,7
2,-8,-27,15,31,23,26,-13,7
23,21,26,13,-12,4,23,31,7
-5,-28,-60,-15,1,4,9,-5,7
-8,3,7,-20,2,3,-21,3,7
4,-16,19,10,-10,-5,-24,-11,7
-35,-29,-21,-23,-11,13,68,12,7
30,44,-41,22,31,-14,-46,2,7
-67,19,43,-7,-41,-31,-68,-52,7
-7,15,21,-21,-34,4,31,8,7
1,-24,5,-22,-10,-3,13,1,7
-7,3,3,45,44,21,37,20,7
29,3,8,-2,7,14,10,10,7
12,8,-22,1,27,-2,7,-30,7
-22,-30,-4,-42,-49,-22,-16,13,7
24,-13,-64,43,6,13,31,31,7
-32,-15,-50,-21,7,-28,-52,-38,7
26,14,30,-32,-4,18,18,13,7
57,15,-53,80,64,29,56,22,7
-13,23,94,-58,-43,-50,-47,-17,7
24,-21,-33,52,33,22,27,11,7
9,-24,-59,-12,-21,-21,-9,-42,7
-23,36,62,-10,23,10,6,4,7
5,-4,-23,-68,-38,2,1,4,7
2,-14,37,15,27,19,19,18,7
0,-12,-5,-73,-55,-25,28,-7,7
20,0,31,43,27,-7,-60,-1,7
2,4,-69,28,16,4,5,-6,7
4,-15,-66,-38,-9,14,30,11,7
-12,15,77,30,17,24,49,44,7
-1,-48,-81,-32,-34,-38,-73,-40,7
14,76,127,96,36,31,11,10,7
18,-26,-29,-80,-51,-12,-22,-20,7
-29,-8,-33,32,27,-20,-1,-24,7
-17,-9,-13,-8,-12,-20,3,-2,7
4,-4,8,43,1,2,-12,-7,7
17,23,32,10,37,7,-5,3,7
-13,-14,54,-13,-44,17,26,-30,7
89,-5,-33,21,34,12,10,40,7
-23,-10,-18,-66,-50,0,50,-6,7
-1,9,102,52,16,-8,-67,2,7
10,-18,-11,26,28,-10,-39,25,7
-32,51,-3,-11,-5,16,28,-42,7
27,-36,-17,19,20,2,-13,14,7
-52,-17,-11,-21,-25,-5,24,9,7
3,15,-61,-2,19,-14,-4,-15,7
16,17,8,-21,-13,-3,-30,-2,7
15,-12,0,-11,0,10,46,-3,7
15,-6,-33,16,4,-8,9,15,7
17,-23,0,49,39,22,-27,41,7
-47,5,-21,-49,-8,5,37,-8,7
8,2,-9,-68,-61,-22,-14,-16,7
-18,18,20,31,-1,-30,-23,-20,7
13,29,6,-1,-17,16,21,23,7
3,9,21,36,24,-13,-16,-15,7
-5,7,35,22,-8,0,13,28,7
-12,-8,40,-73,-13,3,11,-13,7
-35,-6,-37,21,0,13,36,28,7
-9,-7,-18,9,6,5,-35,-48,7
-11,-9,1,25,10,4,31,-2,7
9,-4,-45,6,6,-14,-40,-12,7
-12,-8,12,-8,-3,-1,44,-10,7
14,4,32,14,-23,-26,-62,-11,7
4,-4,-35,-3,46,14,5,4,7
-41,-12,73,17,-11,-3,10,3,7
-9,-5,40,-55,-86,-35,-11,2,7
53,33,-17,62,29,19,27,22,7
-35,-19,-11,-11,21,-5,-28,-14,7
1,2,-22,54,20,15,11,-9,7
9,-8,-69,-35,40,10,-18,3,7
-11,3,56,6,-32,19,47,26,7
2,2,45,-38,-14,-27,-27,-8,7
-66,-49,-82,-19,-22,0,-5,-1,7
11,72,56,5,11,14,12,-13,7
26,4,-7,-5,-1,-6,-4,1,7
-22,16,36,20,15,20,56,8,7
29,-31,-100,19,7,-12,-58,3,7
-8,10,-11,10,1,-2,-10,11,7
-15,0,52,-34,-17,0,15,-15,7
-10,-20,-49,7,12,11,-15,-22,7
25,38,58,18,3,-2,26,9,7
-70,-23,-46,51,41,11,-17,-23,7
31,-1,-38,-61,-17,-8,6,43,7
-25,-20,12,67,21,-8,-24,-29,7
31,17,9,-70,-26,-2,16,10,7
15,-2,-1,20,20,24,32,22,7
-56,-37,54,3,-3,-17,-20,-24,7
-44,16,-9,-10,-3,4,36,-15,7
15,-10,-15,24,-1,-27,-74,-26,7
36,-19,-30,-50,-19,-3,6,37,7
25,10,-28,26,13,7,16,20,7
9,23,-55,-36,-12,13,-3,5,7
-8,-9,-23,70,22,12,47,-1,7
0,-7,-18,-27,-19,-19,-17,7,7
-6,-12,-33,-51,11,5,-22,-12,7
-1,-26,42,68,-3,-9,-24,12,7
30,19,-42,-1,20,4,19,4,7
-7,-32,-52,-31,-10,-21,-36,-11,7
-1,37,56,-11,2,15,27,6,7
1,6,-58,-14,-24,-3,-13,13,7
11,14,72,23,20,-2,6,10,7
4,-17,64,43,4,31,41,2,7
-9,-1,5,3,-11,-35,-31,-34,7
-1,-6,-25,-8,-7,-1,-19,-9,7
-8,3,68,41,2,-2,-2,8,7
2,-8,-27,15,31,23,26,-13,7
23,21,26,13,-12,4,23,31,7
-5,-28,-60,-15,1,4,9,-5,7
-8,3,7,-20,2,3,-21,3,7
4,-16,19,10,-10,-5,-24,-11,7
-35,-29,-21,-23,-11,13,68,12,7
30,44,-41,22,31,-14,-46,2,7
-67,19,43,-7,-41,-31,-68,-52,7
-7,15,21,-21,-34,4,31,8,7
1,-24,5,-22,-10,-3,13,1,7
-7,3,3,45,44,21,37,20,7
29,3,8,-2,7,14,10,10,7
12,8,-22,1,27,-2,7,-30,7
-22,-30,-4,-42,-49,-22,-16,13,7
24,-13,-64,43,6,13,31,31,7
-32,-15,-50,-21,7,-28,-52,-38,7
26,14,30,-32,-4,18,18,13,7
57,15,-53,80,64,29,56,22,7
-13,23,94,-58,-43,-50,-47,-17,7
24,-21,-33,52,33,22,27,11,7
9,-24,-59,-12,-21,-21,-9,-42,7
-23,36,62,-10,23,10,6,4,7
5,-4,-23,-68,-38,2,1,4,7
2,-14,37,15,27,19,19,18,7
0,-12,-5,-73,-55,-25,28,-7,7
20,0,31,43,27,-7,-60,-1,7
2,4,-69,28,16,4,5,-6,7
4,-15,-66,-38,-9,14,30,11,7
-12,15,77,30,17,24,49,44,7
-1,-48,-81,-32,-34,-38,-73,-40,7
14,76,127,96,36,31,11,10,7
18,-26,-29,-80,-51,-12,-22,-20,7
-29,-8,-33,32,27,-20,-1,-24,7
-17,-9,-13,-8,-12,-20,3,-2,7
4,-4,8,43,1,2,-12,-7,7
17,23,32,10,37,7,-5,3,7
-13,-14,54,-13,-44,17,26,-30,7
89,-5,-33,21,34,12,10,40,7
-23,-10,-18,-66,-50,0,50,-6,7
-1,9,102,52,16,-8,-67,2,7
10,-18,-11,26,28,-10,-39,25,7
-32,51,-3,-11,-5,16,28,-42,7
27,-36,-17,19,20,2,-13,14,7
-52,-17,-11,-21,-25,-5,24,9,7
3,15,-61,-2,19,-14,-4,-15,7
16,17,8,-21,-13,-3,-30,-2,7
15,-12,0,-11,0,10,46,-3,7
15,-6,-33,16,4,-8,9,15,7
17,-23,0,49,39,22,-27,41,7
-47,5,-21,-49,-8,5,37,-8,7
8,2,-9,-68,-61,-22,-14,-16,7
-18,18,20,31,-1,-30,-23,-20,7
13,29,6,-1,-17,16,21,23,7
3,9,21,36,24,-13,-16,-15,7
-5,7,35,22,-8,0,13,28,7
-12,-8,40,-73,-13,3,11,-13,7
-35,-6,-37,21,0,13,36,28,7
-9,-7,-18,9,6,5,-35,-48,7
-11,-9,1,25,10,4,31,-2,7
9,-4,-45,6,6,-14,-40,-12,7
-12,-8,12,-8,-3,-1,44,-10,7
14,4,32,14,-23,-26,-62,-11,7
4,-4,-35,-3,46,14,5,4,7
-41,-12,73,17,-11,-3,10,3,7
-9,-5,40,-55,-86,-35,-11,2,7
53,33,-17,62,29,19,27,22,7
-35,-19,-11,-11,21,-5,-28,-14,7
1,2,-22,54,20,15,11,-9,7
9,-8,-69,-35,40,10,-18,3,7
-11,3,56,6,-32,19,47,26,7
2,2,45,-38,-14,-27,-27,-8,7
-66,-49,-82,-19,-22,0,-5,-1,7
11,72,56,5,11,14,12,-13,7
26,4,-7,-5,-1,-6,-4,1,7
-22,16,36,20,15,20,56,8,7
29,-31,-100,19,7,-12,-58,3,7
-8,10,-11,10,1,-2,-10,11,7
-15,0,52,-34,-17,0,15,-15,7
-10,-20,-49,7,12,11,-15,-22,7
25,38,58,18,3,-2,26,9,7
-70,-23,-46,51,41,11,-17,-23,7
31,-1,-38,-61,-17,-8,6,43,7
-25,-20,12,67,21,-8,-24,-29,7
31,17,9,-70,-26,-2,16,10,7
15,-2,-1,20,20,24,32,22,7
-56,-37,54,3,-3,-17,-20,-24,7
-44,16,-9,-10,-3,4,36,-15,7
15,-10,-15,24,-1,-27,-74,-26,7
36,-19,-30,-50,-19,-3,6,37,7
25,10,-28,26,13,7,16,20,7
9,23,-55,-36,-12,13,-3,5,7
-8,-9,-23,70,22,12,47,-1,7
0,-7,-18,-27,-19,-19,-17,7,7
-6,-12,-33,-51,11,5,-22,-12,7
-1,-26,42,68,-3,-9,-24,12,7
30,19,-42,-1,20,4,19,4,7
-7,-32,-52,-31,-10,-21,-36,-11,7
-1,37,56,-11,2,15,27,6,7
1,6,-58,-14,-24,-3,-13,13,7
11,14,72,23,20,-2,6,10,7
4,-17,64,43,4,31,41,2,7
-9,-1,5,3,-11,-35,-31,-34,7
33,6,-9,-21,-2,4,-28,48,7
-12,8,-32,-33,-23,-4,8,-14,7
7,17,-18,3,20,1,-15,-4,7
0,-37,11,0,-7,7,20,13,7
30,4,-6,-3,-3,-6,-25,-12,7
-10,-15,-39,-20,9,20,40,1,7
7,12,67,-23,-30,-38,-48,-2,7
-24,-43,-33,48,14,28,36,-16,7
32,45,72,44,50,-28,-68,19,7
-36,-38,-44,-121,-108,-35,-13,-6,7
20,-14,-44,9,27,17,22,-1,7
-34,1,-16,36,-4,-20,-5,-34,7
-10,-46,-21,-1,10,7,13,25,7
30,24,90,30,10,5,1,0,7
-49,-12,-41,-16,-2,18,23,-1,7
122,23,37,9,-18,-33,-24,-36,7
-65,15,68,-11,-15,-12,-1,-8,7
59,10,-71,-11,17,24,27,40,7
13,3,36,7,-19,-25,12,33,7
-8,13,-21,-13,26,48,-48,-23,7
-30,-32,-89,-8,-13,-27,18,-33,7
-36,19,113,7,-6,-28,-16,1,7
10,-13,-67,17,18,28,15,12,7
-45,1,27,9,-16,-2,-4,-24,7
-13,23,94,-58,-43,-50,-47,-17,7
24,-21,-33,52,33,22,27,11,7
9,-24,-59,-12,-21,-21,-9,-42,7
-23,36,62,-10,23,10,6,4,7
5,-4,-23,-68,-38,2,1,4,7
2,-14,37,15,27,19,19,18,7
0,-12,-5,-73,-55,-25,28,-7,7
20,0,31,43,27,-7,-60,-1,7
2,4,-69,28,16,4,5,-6,7
4,-15,-66,-38,-9,14,30,11,7
-12,15,77,30,17,24,49,44,7
-1,-48,-81,-32,-34,-38,-73,-40,7
14,76,127,96,36,31,11,10,7
18,-26,-29,-80,-51,-12,-22,-20,7
-29,-8,-33,32,27,-20,-1,-24,7
-17,-9,-13,-8,-12,-20,3,-2,7
4,-4,8,43,1,2,-12,-7,7
17,23,32,10,37,7,-5,3,7
-13,-14,54,-13,-44,17,26,-30,7
89,-5,-33,21,34,12,10,40,7
-23,-10,-18,-66,-50,0,50,-6,7
-1,9,102,52,16,-8,-67,2,7
10,-18,-11,26,28,-10,-39,25,7
-32,51,-3,-11,-5,16,28,-42,7
27,-36,-17,19,20,2,-13,14,7
-52,-17,-11,-21,-25,-5,24,9,7
3,15,-61,-2,19,-14,-4,-15,7
16,17,8,-21,-13,-3,-30,-2,7
15,-12,0,-11,0,10,46,-3,7
15,-6,-33,16,4,-8,9,15,7
17,-23,0,49,39,22,-27,41,7
-47,5,-21,-49,-8,5,37,-8,7
8,2,-9,-68,-61,-22,-14,-16,7
-18,18,20,31,-1,-30,-23,-20,7
13,29,6,-1,-17,16,21,23,7
3,9,21,36,24,-13,-16,-15,7
-5,7,35,22,-8,0,13,28,7
-12,-8,40,-73,-13,3,11,-13,7
-35,-6,-37,21,0,13,36,28,7
-9,-7,-18,9,6,5,-35,-48,7
-11,-9,1,25,10,4,31,-2,7
9,-4,-45,6,6,-14,-40,-12,7
-12,-8,12,-8,-3,-1,44,-10,7
14,4,32,14,-23,-26,-62,-11,7
4,-4,-35,-3,46,14,5,4,7
-41,-12,73,17,-11,-3,10,3,7
-9,-5,40,-55,-86,-35,-11,2,7
53,33,-17,62,29,19,27,22,7
-35,-19,-11,-11,21,-5,-28,-14,7
1,2,-22,54,20,15,11,-9,7
9,-8,-69,-35,40,10,-18,3,7
-11,3,56,6,-32,19,47,26,7
2,2,45,-38,-14,-27,-27,-8,7
-66,-49,-82,-19,-22,0,-5,-1,7
11,72,56,5,11,14,12,-13,7
26,4,-7,-5,-1,-6,-4,1,7
-22,16,36,20,15,20,56,8,7
29,-31,-100,19,7,-12,-58,3,7
-8,10,-11,10,1,-2,-10,11,7
-15,0,52,-34,-17,0,15,-15,7
-10,-20,-49,7,12,11,-15,-22,7
25,38,58,18,3,-2,26,9,7
-70,-23,-46,51,41,11,-17,-23,7
31,-1,-38,-61,-17,-8,6,43,7
-25,-20,12,67,21,-8,-24,-29,7
31,17,9,-70,-26,-2,16,10,7
15,-2,-1,20,20,24,32,22,7
-56,-37,54,3,-3,-17,-20,-24,7
-44,16,-9,-10,-3,4,36,-15,7
15,-10,-15,24,-1,-27,-74,-26,7
36,-19,-30,-50,-19,-3,6,37,7
25,10,-28,26,13,7,16,20,7
9,23,-55,-36,-12,13,-3,5,7
-8,-9,-23,70,22,12,47,-1,7
0,-7,-18,-27,-19,-19,-17,7,7
-6,-12,-33,-51,11,5,-22,-12,7
-1,-26,42,68,-3,-9,-24,12,7
30,19,-42,-1,20,4,19,4,7
-7,-32,-52,-31,-10,-21,-36,-11,7
-1,37,56,-11,2,15,27,6,7
1,6,-58,-14,-24,-3,-13,13,7
11,14,72,23,20,-2,6,10,7
4,-17,64,43,4,31,41,2,7
-9,-1,5,3,-11,-35,-31,-34,7
33,6,-9,-21,-2,4,-28,48,7
-12,8,-32,-33,-23,-4,8,-14,7
7,17,-18,3,20,1,-15,-4,7
0,-37,11,0,-7,7,20,13,7
30,4,-6,-3,-3,-6,-25,-12,7
-10,-15,-39,-20,9,20,40,1,7
7,12,67,-23,-30,-38,-48,-2,7
-24,-43,-33,48,14,28,36,-16,7
32,45,72,44,50,-28,-68,19,7
-36,-38,-44,-121,-108,-35,-13,-6,7
20,-14,-44,9,27,17,22,-1,7
-34,1,-16,36,-4,-20,-5,-34,7
-10,-46,-21,-1,10,7,13,25,7
30,24,90,30,10,5,1,0,7
-49,-12,-41,-16,-2,18,23,-1,7
122,23,37,9,-18,-33,-24,-36,7
-65,15,68,-11,-15,-12,-1,-8,7
59,10,-71,-11,17,24,27,40,7
13,3,36,7,-19,-25,12,33,7
-8,13,-21,-13,26,48,-48,-23,7
-30,-32,-89,-8,-13,-27,18,-33,7
-36,19,113,7,-6,-28,-16,1,7
10,-13,-67,17,18,28,15,12,7
-45,1,27,9,-16,-2,-4,-24,7
58,4,21,-38,-56,-26,-13,52,7
22,12,-24,-1,-1,16,1,0,7
-33,-24,-4,25,17,7,23,-6,7
-13,-19,-2,-30,-5,2,8,59,7
6,35,-17,21,15,8,-9,-55,7
8,-19,35,-6,5,14,56,19,7
13,36,77,37,-3,-9,-25,15,7
-45,-33,-89,-17,-4,-24,-53,-51,7
-20,-32,41,-26,2,17,49,68,7
58,27,-79,22,11,3,-30,1,7
-45,-60,3,-33,-11,-26,-50,-58,7
-11,57,-26,18,22,22,42,16,7
18,-3,-27,-17,-20,-9,-1,33,7
3,22,-23,21,25,-3,-61,-22,7
-15,-1,-2,-17,-33,-14,-18,6,7
-5,-10,42,23,19,-5,16,-28,7
2,-13,-86,-15,-26,6,5,-30,7
-35,62,100,42,19,13,33,4,7
33,-45,-31,-22,4,-9,-27,-4,7
27,25,-13,-3,4,-5,12,42,7
-23,-10,-18,-66,-50,0,50,-6,7
-1,9,102,52,16,-8,-67,2,7
10,-18,-11,26,28,-10,-39,25,7
-32,51,-3,-11,-5,16,28,-42,7
27,-36,-17,19,20,2,-13,14,7
-52,-17,-11,-21,-25,-5,24,9,7
3,15,-61,-2,19,-14,-4,-15,7
16,17,8,-21,-13,-3,-30,-2,7
15,-12,0,-11,0,10,46,-3,7
15,-6,-33,16,4,-8,9,15,7
17,-23,0,49,39,22,-27,41,7
-47,5,-21,-49,-8,5,37,-8,7
8,2,-9,-68,-61,-22,-14,-16,7
-18,18,20,31,-1,-30,-23,-20,7
13,29,6,-1,-17,16,21,23,7
3,9,21,36,24,-13,-16,-15,7
-5,7,35,22,-8,0,13,28,7
-12,-8,40,-73,-13,3,11,-13,7
-35,-6,-37,21,0,13,36,28,7
-9,-7,-18,9,6,5,-35,-48,7
-11,-9,1,25,10,4,31,-2,7
9,-4,-45,6,6,-14,-40,-12,7
-12,-8,12,-8,-3,-1,44,-10,7
14,4,32,14,-23,-26,-62,-11,7
4,-4,-35,-3,46,14,5,4,7
-41,-12,73,17,-11,-3,10,3,7
-9,-5,40,-55,-86,-35,-11,2,7
53,33,-17,62,29,19,27,22,7
-35,-19,-11,-11,21,-5,-28,-14,7
1,2,-22,54,20,15,11,-9,7
9,-8,-69,-35,40,10,-18,3,7
-11,3,56,6,-32,19,47,26,7
2,2,45,-38,-14,-27,-27,-8,7
-66,-49,-82,-19,-22,0,-5,-1,7
11,72,56,5,11,14,12,-13,7
26,4,-7,-5,-1,-6,-4,1,7
-22,16,36,20,15,20,56,8,7
29,-31,-100,19,7,-12,-58,3,7
-8,10,-11,10,1,-2,-10,11,7
-15,0,52,-34,-17,0,15,-15,7
-10,-20,-49,7,12,11,-15,-22,7
25,38,58,18,3,-2,26,9,7
-70,-23,-46,51,41,11,-17,-23,7
31,-1,-38,-61,-17,-8,6,43,7
-25,-20,12,67,21,-8,-24,-29,7
31,17,9,-70,-26,-2,16,10,7
15,-2,-1,20,20,24,32,22,7
-56,-37,54,3,-3,-17,-20,-24,7
-44,16,-9,-10,-3,4,36,-15,7
15,-10,-15,24,-1,-27,-74,-26,7
36,-19,-30,-50,-19,-3,6,37,7
25,10,-28,26,13,7,16,20,7
9,23,-55,-36,-12,13,-3,5,7
-8,-9,-23,70,22,12,47,-1,7
0,-7,-18,-27,-19,-19,-17,7,7
-6,-12,-33,-51,11,5,-22,-12,7
-1,-26,42,68,-3,-9,-24,12,7
30,19,-42,-1,20,4,19,4,7
-7,-32,-52,-31,-10,-21,-36,-11,7
-1,37,56,-11,2,15,27,6,7
1,6,-58,-14,-24,-3,-13,13,7
11,14,72,23,20,-2,6,10,7
4,-17,64,43,4,31,41,2,7
-9,-1,5,3,-11,-35,-31,-34,7
33,6,-9,-21,-2,4,-28,48,7
-12,8,-32,-33,-23,-4,8,-14,7
7,17,-18,3,20,1,-15,-4,7
0,-37,11,0,-7,7,20,13,7
30,4,-6,-3,-3,-6,-25,-12,7
-10,-15,-39,-20,9,20,40,1,7
7,12,67,-23,-30,-38,-48,-2,7
-24,-43,-33,48,14,28,36,-16,7
32,45,72,44,50,-28,-68,19,7
-36,-38,-44,-121,-108,-35,-13,-6,7
20,-14,-44,9,27,17,22,-1,7
-34,1,-16,36,-4,-20,-5,-34,7
-10,-46,-21,-1,10,7,13,25,7
30,24,90,30,10,5,1,0,7
-49,-12,-41,-16,-2,18,23,-1,7
122,23,37,9,-18,-33,-24,-36,7
-65,15,68,-11,-15,-12,-1,-8,7
59,10,-71,-11,17,24,27,40,7
13,3,36,7,-19,-25,12,33,7
-8,13,-21,-13,26,48,-48,-23,7
-30,-32,-89,-8,-13,-27,18,-33,7
-36,19,113,7,-6,-28,-16,1,7
10,-13,-67,17,18,28,15,12,7
-45,1,27,9,-16,-2,-4,-24,7
58,4,21,-38,-56,-26,-13,52,7
22,12,-24,-1,-1,16,1,0,7
-33,-24,-4,25,17,7,23,-6,7
-13,-19,-2,-30,-5,2,8,59,7
6,35,-17,21,15,8,-9,-55,7
8,-19,35,-6,5,14,56,19,7
13,36,77,37,-3,-9,-25,15,7
-45,-33,-89,-17,-4,-24,-53,-51,7
-20,-32,41,-26,2,17,49,68,7
58,27,-79,22,11,3,-30,1,7
-45,-60,3,-33,-11,-26,-50,-58,7
-11,57,-26,18,22,22,42,16,7
18,-3,-27,-17,-20,-9,-1,33,7
3,22,-23,21,25,-3,-61,-22,7
-15,-1,-2,-17,-33,-14,-18,6,7
-5,-10,42,23,19,-5,16,-28,7
2,-13,-86,-15,-26,6,5,-30,7
-35,62,100,42,19,13,33,4,7
33,-45,-31,-22,4,-9,-27,-4,7
27,25,-13,-3,4,-5,12,42,7
2,-8,15,12,9,-4,-32,-59,7
11,-21,35,1,7,4,29,48,7
27,1,-68,0,-4,7,33,40,7
12,-18,-3,-32,-19,17,31,-69,7
-40,-31,31,14,6,-49,-83,29,7
26,-11,-27,9,10,11,52,-6,7
-19,41,-35,-52,-17,-7,-21,-18,7
29,-20,-8,7,4,14,-7,10,7
1,5,25,30,-7,4,34,1,7
-22,-37,-107,-77,-32,-13,-12,-37,7
43,65,101,77,30,6,4,10,7
1,-21,77,-8,1,-1,15,69,7
42,46,-78,-30,8,18,11,-28,7
-36,9,33,48,-6,0,-7,2,7
-32,-27,-77,-28,4,-9,-12,6,7
-15,-12,-51,2,4,2,1,-35,7
10,6,9,31,16,14,-16,-17,7
15,-38,-86,-57,-5,3,15,-54,7
36,52,40,27,1,-4,-43,32,7
-41,-9,6,15,1,-13,-2,-1,7
4,-4,-35,-3,46,14,5,4,7
-41,-12,73,17,-11,-3,10,3,7
-9,-5,40,-55,-86,-35,-11,2,7
53,33,-17,62,29,19,27,22,7
-35,-19,-11,-11,21,-5,-28,-14,7
1,2,-22,54,20,15,11,-9,7
9,-8,-69,-35,40,10,-18,3,7
-11,3,56,6,-32,19,47,26,7
2,2,45,-38,-14,-27,-27,-8,7
-66,-49,-82,-19,-22,0,-5,-1,7
11,72,56,5,11,14,12,-13,7
26,4,-7,-5,-1,-6,-4,1,7
-22,16,36,20,15,20,56,8,7
29,-31,-100,19,7,-12,-58,3,7
-8,10,-11,10,1,-2,-10,11,7
-15,0,52,-34,-17,0,15,-15,7
-10,-20,-49,7,12,11,-15,-22,7
25,38,58,18,3,-2,26,9,7
-70,-23,-46,51,41,11,-17,-23,7
31,-1,-38,-61,-17,-8,6,43,7
-25,-20,12,67,21,-8,-24,-29,7
31,17,9,-70,-26,-2,16,10,7
15,-2,-1,20,20,24,32,22,7
-56,-37,54,3,-3,-17,-20,-24,7
-44,16,-9,-10,-3,4,36,-15,7
15,-10,-15,24,-1,-27,-74,-26,7
36,-19,-30,-50,-19,-3,6,37,7
25,10,-28,26,13,7,16,20,7
9,23,-55,-36,-12,13,-3,5,7
-8,-9,-23,70,22,12,47,-1,7
0,-7,-18,-27,-19,-19,-17,7,7
-6,-12,-33,-51,11,5,-22,-12,7
-1,-26,42,68,-3,-9,-24,12,7
30,19,-42,-1,20,4,19,4,7
-7,-32,-52,-31,-10,-21,-36,-11,7
-1,37,56,-11,2,15,27,6,7
1,6,-58,-14,-24,-3,-13,13,7
11,14,72,23,20,-2,6,10,7
4,-17,64,43,4,31,41,2,7
-9,-1,5,3,-11,-35,-31,-34,7
33,6,-9,-21,-2,4,-28,48,7
-12,8,-32,-33,-23,-4,8,-14,7
7,17,-18,3,20,1,-15,-4,7
0,-37,11,0,-7,7,20,13,7
30,4,-6,-3,-3,-6,-25,-12,7
-10,-15,-39,-20,9,20,40,1,7
7,12,67,-23,-30,-38,-48,-2,7
-24,-43,-33,48,14,28,36,-16,7
32,45,72,44,50,-28,-68,19,7
-36,-38,-44,-121,-108,-35,-13,-6,7
20,-14,-44,9,27,17,22,-1,7
-34,1,-16,36,-4,-20,-5,-34,7
-10,-46,-21,-1,10,7,13,25,7
30,24,90,30,10,5,1,0,7
-49,-12,-41,-16,-2,18,23,-1,7
122,23,37,9,-18,-33,-24,-36,7
-65,15,68,-11,-15,-12,-1,-8,7
59,10,-71,-11,17,24,27,40,7
13,3,36,7,-19,-25,12,33,7
-8,13,-21,-13,26,48,-48,-23,7
-30,-32,-89,-8,-13,-27,18,-33,7
-36,19,113,7,-6,-28,-16,1,7
10,-13,-67,17,18,28,15,12,7
-45,1,27,9,-16,-2,-4,-24,7
58,4,21,-38,-56,-26,-13,52,7
22,12,-24,-1,-1,16,1,0,7
-33,-24,-4,25,17,7,23,-6,7
-13,-19,-2,-30,-5,2,8,59,7
6,35,-17,21,15,8,-9,-55,7
8,-19,35,-6,5,14,56,19,7
13,36,77,37,-3,-9,-25,15,7
-45,-33,-89,-17,-4,-24,-53,-51,7
-20,-32,41,-26,2,17,49,68,7
58,27,-79,22,11,3,-30,1,7
-45,-60,3,-33,-11,-26,-50,-58,7
-11,57,-26,18,22,22,42,16,7
18,-3,-27,-17,-20,-9,-1,33,7
3,22,-23,21,25,-3,-61,-22,7
-15,-1,-2,-17,-33,-14,-18,6,7
-5,-10,42,23,19,-5,16,-28,7
2,-13,-86,-15,-26,6,5,-30,7
-35,62,100,42,19,13,33,4,7
33,-45,-31,-22,4,-9,-27,-4,7
27,25,-13,-3,4,-5,12,42,7
2,-8,15,12,9,-4,-32,-59,7
11,-21,35,1,7,4,29,48,7
27,1,-68,0,-4,7,33,40,7
12,-18,-3,-32,-19,17,31,-69,7
-40,-31,31,14,6,-49,-83,29,7
26,-11,-27,9,10,11,52,-6,7
-19,41,-35,-52,-17,-7,-21,-18,7
29,-20,-8,7,4,14,-7,10,7
1,5,25,30,-7,4,34,1,7
-22,-37,-107,-77,-32,-13,-12,-37,7
43,65,101,77,30,6,4,10,7
1,-21,77,-8,1,-1,15,69,7
42,46,-78,-30,8,18,11,-28,7
-36,9,33,48,-6,0,-7,2,7
-32,-27,-77,-28,4,-9,-12,6,7
-15,-12,-51,2,4,2,1,-35,7
10,6,9,31,16,14,-16,-17,7
15,-38,-86,-57,-5,3,15,-54,7
36,52,40,27,1,-4,-43,32,7
-41,-9,6,15,1,-13,-2,-1,7
46,-4,28,2,-5,24,88,42,7
-63,-1,-13,47,17,-5,-59,-66,7
4,2,75,-48,-41,9,27,-23,7
-15,-7,7,-18,-16,-19,-12,34,7
12,3,8,-3,20,22,27,-42,7
25,7,-53,-21,-25,-8,-5,49,7
-15,11,80,81,41,13,34,-7,7
0,10,-45,-35,-4,-2,5,46,7
-70,-38,-52,-45,-21,-8,-34,-56,7
18,3,127,62,29,2,-22,23,7
-49,5,35,14,7,13,7,-39,7
39,65,20,1,-13,0,19,36,7
-13,5,-40,10,8,1,16,-14,7
11,-45,-59,-45,-7,-17,-41,11,7
-14,-8,83,1,-14,0,-22,-53,7
-10,23,-2,15,8,29,71,70,7
-66,-83,-17,-28,-14,-64,-103,-92,7
-33,-6,-15,15,10,6,28,51,7
38,10,-75,-60,-30,-17,33,38,7
-33,-49,39,29,1,-2,-87,-102,7
56,54,100,8,12,17,23,68,7
-11,15,-32,12,-1,-2,-2,-27,7
17,-6,30,86,39,4,42,29,7
22,-13,-126,4,15,-2,-35,27,7
-25,-20,12,67,21,-8,-24,-29,7
31,17,9,-70,-26,-2,16,10,7
15,-2,-1,20,20,24,32,22,7
-56,-37,54,3,-3,-17,-20,-24,7
-44,16,-9,-10,-3,4,36,-15,7
15,-10,-15,24,-1,-27,-74,-26,7
36,-19,-30,-50,-19,-3,6,37,7
25,10,-28,26,13,7,16,20,7
9,23,-55,-36,-12,13,-3,5,7
-8,-9,-23,70,22,12,47,-1,7
0,-7,-18,-27,-19,-19,-17,7,7
-6,-12,-33,-51,11,5,-22,-12,7
-1,-26,42,68,-3,-9,-24,12,7
30,19,-42,-1,20,4,19,4,7
-7,-32,-52,-31,-10,-21,-36,-11,7
-1,37,56,-11,2,15,27,6,7
1,6,-58,-14,-24,-3,-13,13,7
11,14,72,23,20,-2,6,10,7
4,-17,64,43,4,31,41,2,7
-9,-1,5,3,-11,-35,-31,-34,7
33,6,-9,-21,-2,4,-28,48,7
-12,8,-32,-33,-23,-4,8,-14,7
7,17,-18,3,20,1,-15,-4,7
0,-37,11,0,-7,7,20,13,7
30,4,-6,-3,-3,-6,-25,-12,7
-10,-15,-39,-20,9,20,40,1,7
7,12,67,-23,-30,-38,-48,-2,7
-24,-43,-33,48,14,28,36,-16,7
32,45,72,44,50,-28,-68,19,7
-36,-38,-44,-121,-108,-35,-13,-6,7
20,-14,-44,9,27,17,22,-1,7
-34,1,-16,36,-4,-20,-5,-34,7
-10,-46,-21,-1,10,7,13,25,7
30,24,90,30,10,5,1,0,7
-49,-12,-41,-16,-2,18,23,-1,7
122,23,37,9,-18,-33,-24,-36,7
-65,15,68,-11,-15,-12,-1,-8,7
59,10,-71,-11,17,24,27,40,7
13,3,36,7,-19,-25,12,33,7
-8,13,-21,-13,26,48,-48,-23,7
-30,-32,-89,-8,-13,-27,18,-33,7
-36,19,113,7,-6,-28,-16,1,7
10,-13,-67,17,18,28,15,12,7
-45,1,27,9,-16,-2,-4,-24,7
58,4,21,-38,-56,-26,-13,52,7
22,12,-24,-1,-1,16,1,0,7
-33,-24,-4,25,17,7,23,-6,7
-13,-19,-2,-30,-5,2,8,59,7
6,35,-17,21,15,8,-9,-55,7
8,-19,35,-6,5,14,56,19,7
13,36,77,37,-3,-9,-25,15,7
-45,-33,-89,-17,-4,-24,-53,-51,7
-20,-32,41,-26,2,17,49,68,7
58,27,-79,22,11,3,-30,1,7
-45,-60,3,-33,-11,-26,-50,-58,7
-11,57,-26,18,22,22,42,16,7
18,-3,-27,-17,-20,-9,-1,33,7
3,22,-23,21,25,-3,-61,-22,7
-15,-1,-2,-17,-33,-14,-18,6,7
-5,-10,42,23,19,-5,16,-28,7
2,-13,-86,-15,-26,6,5,-30,7
-35,62,100,42,19,13,33,4,7
33,-45,-31,-22,4,-9,-27,-4,7
27,25,-13,-3,4,-5,12,42,7
2,-8,15,12,9,-4,-32,-59,7
11,-21,35,1,7,4,29,48,7
27,1,-68,0,-4,7,33,40,7
12,-18,-3,-32,-19,17,31,-69,7
-40,-31,31,14,6,-49,-83,29,7
26,-11,-27,9,10,11,52,-6,7
-19,41,-35,-52,-17,-7,-21,-18,7
29,-20,-8,7,4,14,-7,10,7
1,5,25,30,-7,4,34,1,7
-22,-37,-107,-77,-32,-13,-12,-37,7
43,65,101,77,30,6,4,10,7
1,-21,77,-8,1,-1,15,69,7
42,46,-78,-30,8,18,11,-28,7
-36,9,33,48,-6,0,-7,2,7
-32,-27,-77,-28,4,-9,-12,6,7
-15,-12,-51,2,4,2,1,-35,7
10,6,9,31,16,14,-16,-17,7
15,-38,-86,-57,-5,3,15,-54,7
36,52,40,27,1,-4,-43,32,7
-41,-9,6,15,1,-13,-2,-1,7
46,-4,28,2,-5,24,88,42,7
-63,-1,-13,47,17,-5,-59,-66,7
4,2,75,-48,-41,9,27,-23,7
-15,-7,7,-18,-16,-19,-12,34,7
12,3,8,-3,20,22,27,-42,7
25,7,-53,-21,-25,-8,-5,49,7
-15,11,80,81,41,13,34,-7,7
0,10,-45,-35,-4,-2,5,46,7
-70,-38,-52,-45,-21,-8,-34,-56,7
18,3,127,62,29,2,-22,23,7
-49,5,35,14,7,13,7,-39,7
39,65,20,1,-13,0,19,36,7
-13,5,-40,10,8,1,16,-14,7
11,-45,-59,-45,-7,-17,-41,11,7
-14,-8,83,1,-14,0,-22,-53,7
-10,23,-2,15,8,29,71,70,7
-66,-83,-17,-28,-14,-64,-103,-92,7
-33,-6,-15,15,10,6,28,51,7
38,10,-75,-60,-30,-17,33,38,7
-33,-49,39,29,1,-2,-87,-102,7
56,54,100,8,12,17,23,68,7
-11,15,-32,12,-1,-2,-2,-27,7
17,-6,30,86,39,4,42,29,7
22,-13,-126,4,15,-2,-35,27,7
-17,48,-54,-60,-59,-9,31,5,7
5,10,21,-20,13,10,-20,-57,7
42,2,-62,-10,8,26,53,31,7
-73,-39,-36,-10,0,-19,7,39,7
32,-25,-30,16,2,27,25,5,7
-1,34,1,10,0,-1,10,25,7
-46,-51,-120,-46,-19,-6,-27,-1,7
70,65,15,41,26,11,17,-7,7
11,-20,-26,-41,-21,-3,-29,-9,7
14,-8,29,-9,-11,9,52,31,7
-13,7,85,17,23,6,-49,-45,7
-4,9,-104,-39,-37,-27,3,25,7
4,14,70,24,13,12,-2,-19,7
-24,-2,-32,22,9,1,26,-2,7
-11,-28,-74,-35,-13,-19,-80,-10,7
11,3,44,10,-3,-8,32,-10,7
11,5,-74,11,24,23,31,18,7
6,-39,-89,-37,-17,-9,-10,9,7
0,39,-40,-6,24,21,29,30,7
-24,-32,55,-50,-48,-29,-28,-28,7
33,6,-9,-21,-2,4,-28,48,7
-12,8,-32,-33,-23,-4,8,-14,7
7,17,-18,3,20,1,-15,-4,7
0,-37,11,0,-7,7,20,13,7
30,4,-6,-3,-3,-6,-25,-12,7
-10,-15,-39,-20,9,20,40,1,7
7,12,67,-23,-30,-38,-48,-2,7
-24,-43,-33,48,14,28,36,-16,7
32,45,72,44,50,-28,-68,19,7
-36,-38,-44,-121,-108,-35,-13,-6,7
20,-14,-44,9,27,17,22,-1,7
-34,1,-16,36,-4,-20,-5,-34,7
-10,-46,-21,-1,10,7,13,25,7
30,24,90,30,10,5,1,0,7
-49,-12,-41,-16,-2,18,23,-1,7
122,23,37,9,-18,-33,-24,-36,7
-65,15,68,-11,-15,-12,-1,-8,7
59,10,-71,-11,17,24,27,40,7
13,3,36,7,-19,-25,12,33,7
-8,13,-21,-13,26,48,-48,-23,7
-30,-32,-89,-8,-13,-27,18,-33,7
-36,19,113,7,-6,-28,-16,1,7
10,-13,-67,17,18,28,15,12,7
-45,1,27,9,-16,-2,-4,-24,7
58,4,21,-38,-56,-26,-13,52,7
22,12,-24,-1,-1,16,1,0,7
-33,-24,-4,25,17,7,23,-6,7
-13,-19,-2,-30,-5,2,8,59,7
6,35,-17,21,15,8,-9,-55,7
8,-19,35,-6,5,14,56,19,7
13,36,77,37,-3,-9,-25,15,7
-45,-33,-89,-17,-4,-24,-53,-51,7
-20,-32,41,-26,2,17,49,68,7
58,27,-79,22,11,3,-30,1,7
-45,-60,3,-33,-11,-26,-50,-58,7
-11,57,-26,18,22,22,42,16,7
18,-3,-27,-17,-20,-9,-1,33,7
3,22,-23,21,25,-3,-61,-22,7
-15,-1,-2,-17,-33,-14,-18,6,7
-5,-10,42,23,19,-5,16,-28,7
2,-13,-86,-15,-26,6,5,-30,7
-35,62,100,42,19,13,33,4,7
33,-45,-31,-22,4,-9,-27,-4,7
27,25,-13,-3,4,-5,12,42,7
2,-8,15,12,9,-4,-32,-59,7
11,-21,35,1,7,4,29,48,7
27,1,-68,0,-4,7,33,40,7
12,-18,-3,-32,-19,17,31,-69,7
-40,-31,31,14,6,-49,-83,29,7
26,-11,-27,9,10,11,52,-6,7
-19,41,-35,-52,-17,-7,-21,-18,7
29,-20,-8,7,4,14,-7,10,7
1,5,25,30,-7,4,34,1,7
-22,-37,-107,-77,-32,-13,-12,-37,7
43,65,101,77,30,6,4,10,7
1,-21,77,-8,1,-1,15,69,7
42,46,-78,-30,8,18,11,-28,7
-36,9,33,48,-6,0,-7,2,7
-32,-27,-77,-28,4,-9,-12,6,7
-15,-12,-51,2,4,2,1,-35,7
10,6,9,31,16,14,-16,-17,7
15,-38,-86,-57,-5,3,15,-54,7
36,52,40,27,1,-4,-43,32,7
-41,-9,6,15,1,-13,-2,-1,7
46,-4,28,2,-5,24,88,42,7
-63,-1,-13,47,17,-5,-59,-66,7
4,2,75,-48,-41,9,27,-23,7
-15,-7,7,-18,-16,-19,-12,34,7
12,3,8,-3,20,22,27,-42,7
25,7,-53,-21,-25,-8,-5,49,7
-15,11,80,81,41,13,34,-7,7
0,10,-45,-35,-4,-2,5,46,7
-70,-38,-52,-45,-21,-8,-34,-56,7
18,3,127,62,29,2,-22,23,7
-49,5,35,14,7,13,7,-39,7
39,65,20,1,-13,0,19,36,7
-13,5,-40,10,8,1,16,-14,7
11,-45,-59,-45,-7,-17,-41,11,7
-14,-8,83,1,-14,0,-22,-53,7
-10,23,-2,15,8,29,71,70,7
-66,-83,-17,-28,-14,-64,-103,-92,7
-33,-6,-15,15,10,6,28,51,7
38,10,-75,-60,-30,-17,33,38,7
-33,-49,39,29,1,-2,-87,-102,7
56,54,100,8,12,17,23,68,7
-11,15,-32,12,-1,-2,-2,-27,7
17,-6,30,86,39,4,42,29,7
22,-13,-126,4,15,-2,-35,27,7
-17,48,-54,-60,-59,-9,31,5,7
5,10,21,-20,13,10,-20,-57,7
42,2,-62,-10,8,26,53,31,7
-73,-39,-36,-10,0,-19,7,39,7
32,-25,-30,16,2,27,25,5,7
-1,34,1,10,0,-1,10,25,7
-46,-51,-120,-46,-19,-6,-27,-1,7
70,65,15,41,26,11,17,-7,7
11,-20,-26,-41,-21,-3,-29,-9,7
14,-8,29,-9,-11,9,52,31,7
-13,7,85,17,23,6,-49,-45,7
-4,9,-104,-39,-37,-27,3,25,7
4,14,70,24,13,12,-2,-19,7
-24,-2,-32,22,9,1,26,-2,7
-11,-28,-74,-35,-13,-19,-80,-10,7
11,3,44,10,-3,-8,32,-10,7
11,5,-74,11,24,23,31,18,7
6,-39,-89,-37,-17,-9,-10,9,7
0,39,-40,-6,24,21,29,30,7
-24,-32,55,-50,-48,-29,-28,-28,7
51,29,42,57,17,-25,-34,-3,7
-9,0,-19,-28,-6,-1,-49,-1,7
26,29,14,41,6,1,18,14,7
22,37,51,-10,-9,-4,22,-54,7
-56,-42,54,25,38,29,54,11,7
26,-6,-42,-32,-43,-31,-72,-22,7
-31,-54,-79,-20,3,18,65,11,7
6,16,99,32,7,5,-52,-24,7
17,1,66,14,22,-6,-13,15,7
7,-7,-21,-34,-15,17,56,-3,7
15,-5,-3,27,-4,-26,-18,11,7
-19,-22,-52,-8,4,-1,-19,-8,7
35,31,-2,-18,-7,17,49,38,7
-9,-12,75,42,12,10,7,7,7
9,14,86,-11,-15,-29,-66,-76,7
1,-18,-65,-2,21,24,27,72,7
-17,34,24,8,-5,-7,-9,7,7
16,34,91,10,1,-3,22,18,7
-11,-4,-65,-13,2,-5,-3,-39,7
-94,2,-2,11,-9,2,27,-5,7
-30,-32,-89,-8,-13,-27,18,-33,7
-36,19,113,7,-6,-28,-16,1,7
10,-13,-67,17,18,28,15,12,7
-45,1,27,9,-16,-2,-4,-24,7
58,4,21,-38,-56,-26,-13,52,7
22,12,-24,-1,-1,16,1,0,7
-33,-24,-4,25,17,7,23,-6,7
-13,-19,-2,-30,-5,2,8,59,7
6,35,-17,21,15,8,-9,-55,7
8,-19,35,-6,5,14,56,19,7
13,36,77,37,-3,-9,-25,15,7
-45,-33,-89,-17,-4,-24,-53,-51,7
-20,-32,41,-26,2,17,49,68,7
58,27,-79,22,11,3,-30,1,7
-45,-60,3,-33,-11,-26,-50,-58,7
-11,57,-26,18,22,22,42,16,7
18,-3,-27,-17,-20,-9,-1,33,7
3,22,-23,21,25,-3,-61,-22,7
-15,-1,-2,-17,-33,-14,-18,6,7
-5,-10,42,23,19,-5,16,-28,7
2,-13,-86,-15,-26,6,5,-30,7
-35,62,100,42,19,13,33,4,7
33,-45,-31,-22,4,-9,-27,-4,7
27,25,-13,-3,4,-5,12,42,7
2,-8,15,12,9,-4,-32,-59,7
11,-21,35,1,7,4,29,48,7
27,1,-68,0,-4,7,33,40,7
12,-18,-3,-32,-19,17,31,-69,7
-40,-31,31,14,6,-49,-83,29,7
26,-11,-27,9,10,11,52,-6,7
-19,41,-35,-52,-17,-7,-21,-18,7
29,-20,-8,7,4,14,-7,10,7
1,5,25,30,-7,4,34,1,7
-22,-37,-107,-77,-32,-13,-12,-37,7
43,65,101,77,30,6,4,10,7
1,-21,77,-8,1,-1,15,69,7
42,46,-78,-30,8,18,11,-28,7
-36,9,33,48,-6,0,-7,2,7
-32,-27,-77,-28,4,-9,-12,6,7
-15,-12,-51,2,4,2,1,-35,7
10,6,9,31,16,14,-16,-17,7
15,-38,-86,-57,-5,3,15,-54,7
36,52,40,27,1,-4,-43,32,7
-41,-9,6,15,1,-13,-2,-1,7
46,-4,28,2,-5,24,88,42,7
-63,-1,-13,47,17,-5,-59,-66,7
4,2,75,-48,-41,9,27,-23,7
-15,-7,7,-18,-16,-19,-12,34,7
12,3,8,-3,20,22,27,-42,7
25,7,-53,-21,-25,-8,-5,49,7
-15,11,80,81,41,13,34,-7,7
0,10,-45,-35,-4,-2,5,46,7
-70,-38,-52,-45,-21,-8,-34,-56,7
18,3,127,62,29,2,-22,23,7
-49,5,35,14,7,13,7,-39,7
39,65,20,1,-13,0,19,36,7
-13,5,-40,10,8,1,16,-14,7
11,-45,-59,-45,-7,-17,-41,11,7
-14,-8,83,1,-14,0,-22,-53,7
-10,23,-2,15,8,29,71,70,7
-66,-83,-17,-28,-14,-64,-103,-92,7
-33,-6,-15,15,10,6,28,51,7
38,10,-75,-60,-30,-17,33,38,7
-33,-49,39,29,1,-2,-87,-102,7
56,54,100,8,12,17,23,68,7
-11,15,-32,12,-1,-2,-2,-27,7
17,-6,30,86,39,4,42,29,7
22,-13,-126,4,15,-2,-35,27,7
-17,48,-54,-60,-59,-9,31,5,7
5,10,21,-20,13,10,-20,-57,7
42,2,-62,-10,8,26,53,31,7
-73,-39,-36,-10,0,-19,7,39,7
32,-25,-30,16,2,27,25,5,7
-1,34,1,10,0,-1,10,25,7
-46,-51,-120,-46,-19,-6,-27,-1,7
70,65,15,41,26,11,17,-7,7
11,-20,-26,-41,-21,-3,-29,-9,7
14,-8,29,-9,-11,9,52,31,7
-13,7,85,17,23,6,-49,-45,7
-4,9,-104,-39,-37,-27,3,25,7
4,14,70,24,13,12,-2,-19,7
-24,-2,-32,22,9,1,26,-2,7
-11,-28,-74,-35,-13,-19,-80,-10,7
11,3,44,10,-3,-8,32,-10,7
11,5,-74,11,24,23,31,18,7
6,-39,-89,-37,-17,-9,-10,9,7
0,39,-40,-6,24,21,29,30,7
-24,-32,55,-50,-48,-29,-28,-28,7
51,29,42,57,17,-25,-34,-3,7
-9,0,-19,-28,-6,-1,-49,-1,7
26,29,14,41,6,1,18,14,7
22,37,51,-10,-9,-4,22,-54,7
-56,-42,54,25,38,29,54,11,7
26,-6,-42,-32,-43,-31,-72,-22,7
-31,-54,-79,-20,3,18,65,11,7
6,16,99,32,7,5,-52,-24,7
17,1,66,14,22,-6,-13,15,7
7,-7,-21,-34,-15,17,56,-3,7
15,-5,-3,27,-4,-26,-18,11,7
-19,-22,-52,-8,4,-1,-19,-8,7
35,31,-2,-18,-7,17,49,38,7
-9,-12,75,42,12,10,7,7,7
9,14,86,-11,-15,-29,-66,-76,7
1,-18,-65,-2,21,24,27,72,7
-17,34,24,8,-5,-7,-9,7,7
16,34,91,10,1,-3,22,18,7
-11,-4,-65,-13,2,-5,-3,-39,7
-94,2,-2,11,-9,2,27,-5,7
-43,-17,-29,13,-2,-17,-58,-16,7
-13,-46,-56,-22,-2,5,-17,15,7
-3,11,10,-9,5,2,-30,-91,7
-5,-15,-36,-30,3,11,40,45,7
24,-14,-127,-29,-19,-30,-60,-16,7
-2,24,82,56,32,-1,-4,12,7
36,45,-41,-50,-17,5,42,64,7
-6,-37,-77,36,3,5,-7,-16,7
-22,-13,-42,-51,-36,-2,30,3,7
39,-24,-20,28,22,2,15,1,7
-25,39,64,19,27,23,4,-27,7
46,-3,-14,-13,-10,-32,24,54,7
2,9,65,61,15,-7,-75,-62,7
2,19,86,-26,-32,-13,7,-46,7
-17,-48,-84,-27,-16,-16,-3,3,7
-7,-1,39,18,16,17,-1,-16,7
6,47,-15,-16,6,16,24,73,7
13,-18,-9,21,14,11,52,-29,7
1,24,38,41,14,-13,-24,21,7
10,8,51,-24,-21,-9,-31,-28,7
2,-8,15,12,9,-4,-32,-59,7
11,-21,35,1,7,4,29,48,7
27,1,-68,0,-4,7,33,40,7
12,-18,-3,-32,-19,17,31,-69,7
-40,-31,31,14,6,-49,-83,29,7
26,-11,-27,9,10,11,52,-6,7
-19,41,-35,-52,-17,-7,-21,-18,7
29,-20,-8,7,4,14,-7,10,7
1,5,25,30,-7,4,34,1,7
-22,-37,-107,-77,-32,-13,-12,-37,7
43,65,101,77,30,6,4,10,7
1,-21,77,-8,1,-1,15,69,7
42,46,-78,-30,8,18,11,-28,7
-36,9,33,48,-6,0,-7,2,7
-32,-27,-77,-28,4,-9,-12,6,7
-15,-12,-51,2,4,2,1,-35,7
10,6,9,31,16,14,-16,-17,7
15,-38,-86,-57,-5,3,15,-54,7
36,52,40,27,1,-4,-43,32,7
-41,-9,6,15,1,-13,-2,-1,7
46,-4,28,2,-5,24,88,42,7
-63,-1,-13,47,17,-5,-59,-66,7
4,2,75,-48,-41,9,27,-23,7
-15,-7,7,-18,-16,-19,-12,34,7
12,3,8,-3,20,22,27,-42,7
25,7,-53,-21,-25,-8,-5,49,7
-15,11,80,81,41,13,34,-7,7
0,10,-45,-35,-4,-2,5,46,7
-70,-38,-52,-45,-21,-8,-34,-56,7
18,3,127,62,29,2,-22,23,7
-49,5,35,14,7,13,7,-39,7
39,65,20,1,-13,0,19,36,7
-13,5,-40,10,8,1,16,-14,7
11,-45,-59,-45,-7,-17,-41,11,7
-14,-8,83,1,-14,0,-22,-53,7
-10,23,-2,15,8,29,71,70,7
-66,-83,-17,-28,-14,-64,-103,-92,7
-33,-6,-15,15,10,6,28,51,7
38,10,-75,-60,-30,-17,33,38,7
-33,-49,39,29,1,-2,-87,-102,7
56,54,100,8,12,17,23,68,7
-11,15,-32,12,-1,-2,-2,-27,7
17,-6,30,86,39,4,42,29,7
22,-13,-126,4,15,-2,-35,27,7
-17,48,-54,-60,-59,-9,31,5,7
5,10,21,-20,13,10,-20,-57,7
42,2,-62,-10,8,26,53,31,7
-73,-39,-36,-10,0,-19,7,39,7
32,-25,-30,16,2,27,25,5,7
-1,34,1,10,0,-1,10,25,7
-46,-51,-120,-46,-19,-6,-27,-1,7
70,65,15,41,26,11,17,-7,7
11,-20,-26,-41,-21,-3,-29,-9,7
14,-8,29,-9,-11,9,52,31,7
-13,7,85,17,23,6,-49,-45,7
-4,9,-104,-39,-37,-27,3,25,7
4,14,70,24,13,12,-2,-19,7
-24,-2,-32,22,9,1,26,-2,7
-11,-28,-74,-35,-13,-19,-80,-10,7
11,3,44,10,-3,-8,32,-10,7
11,5,-74,11,24,23,31,18,7
6,-39,-89,-37,-17,-9,-10,9,7
0,39,-40,-6,24,21,29,30,7
-24,-32,55,-50,-48,-29,-28,-28,7
51,29,42,57,17,-25,-34,-3,7
-9,0,-19,-28,-6,-1,-49,-1,7
26,29,14,41,6,1,18,14,7
22,37,51,-10,-9,-4,22,-54,7
-56,-42,54,25,38,29,54,11,7
26,-6,-42,-32,-43,-31,-72,-22,7
-31,-54,-79,-20,3,18,65,11,7
6,16,99,32,7,5,-52,-24,7
17,1,66,14,22,-6,-13,15,7
7,-7,-21,-34,-15,17,56,-3,7
15,-5,-3,27,-4,-26,-18,11,7
-19,-22,-52,-8,4,-1,-19,-8,7
35,31,-2,-18,-7,17,49,38,7
-9,-12,75,42,12,10,7,7,7
9,14,86,-11,-15,-29,-66,-76,7
1,-18,-65,-2,21,24,27,72,7
-17,34,24,8,-5,-7,-9,7,7
16,34,91,10,1,-3,22,18,7
-11,-4,-65,-13,2,-5,-3,-39,7
-94,2,-2,11,-9,2,27,-5,7
-43,-17,-29,13,-2,-17,-58,-16,7
-13,-46,-56,-22,-2,5,-17,15,7
-3,11,10,-9,5,2,-30,-91,7
-5,-15,-36,-30,3,11,40,45,7
24,-14,-127,-29,-19,-30,-60,-16,7
-2,24,82,56,32,-1,-4,12,7
36,45,-41,-50,-17,5,42,64,7
-6,-37,-77,36,3,5,-7,-16,7
-22,-13,-42,-51,-36,-2,30,3,7
39,-24,-20,28,22,2,15,1,7
-25,39,64,19,27,23,4,-27,7
46,-3,-14,-13,-10,-32,24,54,7
2,9,65,61,15,-7,-75,-62,7
2,19,86,-26,-32,-13,7,-46,7
-17,-48,-84,-27,-16,-16,-3,3,7
-7,-1,39,18,16,17,-1,-16,7
6,47,-15,-16,6,16,24,73,7
13,-18,-9,21,14,11,52,-29,7
1,24,38,41,14,-13,-24,21,7
10,8,51,-24,-21,-9,-31,-28,7
-5,-4,-38,-21,-5,10,37,30,7
-6,-2,53,16,7,4,-18,13,7
15,-8,-80,-28,-4,22,54,57,7
-77,-37,-42,30,24,-15,-57,-82,7
34,27,78,18,-13,-16,11,1,7
-42,-1,3,-3,3,-2,-45,-62,7
31,-1,42,-1,11,22,60,25,7
-16,3,-26,-9,-14,-11,-48,16,7
-7,61,4,5,15,10,90,63,7
-25,-68,-44,8,-2,-22,-35,-18,7
13,5,-60,-30,-17,4,-28,-3,7
43,34,45,-7,7,26,21,21,7
55,19,-7,-4,-5,7,72,-14,7
-54,-18,30,26,0,-49,-77,1,7
-17,4,31,29,0,-11,-9,-1,7
82,26,-96,-47,8,5,30,-11,7
-53,-80,-21,-17,-38,-4,-36,-16,7
25,31,-18,26,29,33,50,47,7
12,-8,12,11,-7,-12,-40,-31,7
-39,-33,-59,-9,7,0,28,-38,7
-29,-20,83,1,1,-9,-42,21,7
43,35,-128,-59,-15,-20,-48,-29,7
0,18,84,62,26,24,98,84,7
49,-16,56,3,-11,2,-91,-12,7
4,2,75,-48,-41,9,27,-23,7
-15,-7,7,-18,-16,-19,-12,34,7
12,3,8,-3,20,22,27,-42,7
25,7,-53,-21,-25,-8,-5,49,7
-15,11,80,81,41,13,34,-7,7
0,10,-45,-35,-4,-2,5,46,7
-70,-38,-52,-45,-21,-8,-34,-56,7
18,3,127,62,29,2,-22,23,7
-49,5,35,14,7,13,7,-39,7
39,65,20,1,-13,0,19,36,7
-13,5,-40,10,8,1,16,-14,7
11,-45,-59,-45,-7,-17,-41,11,7
-14,-8,83,1,-14,0,-22,-53,7
-10,23,-2,15,8,29,71,70,7
-66,-83,-17,-28,-14,-64,-103,-92,7
-33,-6,-15,15,10,6,28,51,7
38,10,-75,-60,-30,-17,33,38,7
-33,-49,39,29,1,-2,-87,-102,7
56,54,100,8,12,17,23,68,7
-11,15,-32,12,-1,-2,-2,-27,7
17,-6,30,86,39,4,42,29,7
22,-13,-126,4,15,-2,-35,27,7
-17,48,-54,-60,-59,-9,31,5,7
5,10,21,-20,13,10,-20,-57,7
42,2,-62,-10,8,26,53,31,7
-73,-39,-36,-10,0,-19,7,39,7
32,-25,-30,16,2,27,25,5,7
-1,34,1,10,0,-1,10,25,7
-46,-51,-120,-46,-19,-6,-27,-1,7
70,65,15,41,26,11,17,-7,7
11,-20,-26,-41,-21,-3,-29,-9,7
14,-8,29,-9,-11,9,52,31,7
-13,7,85,17,23,6,-49,-45,7
-4,9,-104,-39,-37,-27,3,25,7
4,14,70,24,13,12,-2,-19,7
-24,-2,-32,22,9,1,26,-2,7
-11,-28,-74,-35,-13,-19,-80,-10,7
11,3,44,10,-3,-8,32,-10,7
11,5,-74,11,24,23,31,18,7
6,-39,-89,-37,-17,-9,-10,9,7
0,39,-40,-6,24,21,29,30,7
-24,-32,55,-50,-48,-29,-28,-28,7
51,29,42,57,17,-25,-34,-3,7
-9,0,-19,-28,-6,-1,-49,-1,7
26,29,14,41,6,1,18,14,7
22,37,51,-10,-9,-4,22,-54,7
-56,-42,54,25,38,29,54,11,7
26,-6,-42,-32,-43,-31,-72,-22,7
-31,-54,-79,-20,3,18,65,11,7
6,16,99,32,7,5,-52,-24,7
17,1,66,14,22,-6,-13,15,7
7,-7,-21,-34,-15,17,56,-3,7
15,-5,-3,27,-4,-26,-18,11,7
-19,-22,-52,-8,4,-1,-19,-8,7
35,31,-2,-18,-7,17,49,38,7
-9,-12,75,42,12,10,7,7,7
9,14,86,-11,-15,-29,-66,-76,7
1,-18,-65,-2,21,24,27,72,7
-17,34,24,8,-5,-7,-9,7,7
16,34,91,10,1,-3,22,18,7
-11,-4,-65,-13,2,-5,-3,-39,7
-94,2,-2,11,-9,2,27,-5,7
-43,-17,-29,13,-2,-17,-58,-16,7
-13,-46,-56,-22,-2,5,-17,15,7
-3,11,10,-9,5,2,-30,-91,7
-5,-15,-36,-30,3,11,40,45,7
24,-14,-127,-29,-19,-30,-60,-16,7
-2,24,82,56,32,-1,-4,12,7
36,45,-41,-50,-17,5,42,64,7
-6,-37,-77,36,3,5,-7,-16,7
-22,-13,-42,-51,-36,-2,30,3,7
39,-24,-20,28,22,2,15,1,7
-25,39,64,19,27,23,4,-27,7
46,-3,-14,-13,-10,-32,24,54,7
2,9,65,61,15,-7,-75,-62,7
2,19,86,-26,-32,-13,7,-46,7
-17,-48,-84,-27,-16,-16,-3,3,7
-7,-1,39,18,16,17,-1,-16,7
6,47,-15,-16,6,16,24,73,7
13,-18,-9,21,14,11,52,-29,7
1,24,38,41,14,-13,-24,21,7
10,8,51,-24,-21,-9,-31,-28,7
-5,-4,-38,-21,-5,10,37,30,7
-6,-2,53,16,7,4,-18,13,7
15,-8,-80,-28,-4,22,54,57,7
-77,-37,-42,30,24,-15,-57,-82,7
34,27,78,18,-13,-16,11,1,7
-42,-1,3,-3,3,-2,-45,-62,7
31,-1,42,-1,11,22,60,25,7
-16,3,-26,-9,-14,-11,-48,16,7
-7,61,4,5,15,10,90,63,7
-25,-68,-44,8,-2,-22,-35,-18,7
13,5,-60,-30,-17,4,-28,-3,7
43,34,45,-7,7,26,21,21,7
55,19,-7,-4,-5,7,72,-14,7
-54,-18,30,26,0,-49,-77,1,7
-17,4,31,29,0,-11,-9,-1,7
82,26,-96,-47,8,5,30,-11,7
-53,-80,-21,-17,-38,-4,-36,-16,7
25,31,-18,26,29,33,50,47,7
12,-8,12,11,-7,-12,-40,-31,7
-39,-33,-59,-9,7,0,28,-38,7
-29,-20,83,1,1,-9,-42,21,7
43,35,-128,-59,-15,-20,-48,-29,7
0,18,84,62,26,24,98,84,7
49,-16,56,3,-11,2,-91,-12,7
-11,-62,-128,-28,1,-14,-18,-70,7
-37,39,53,-15,-18,12,37,-46,7
54,8,21,0,7,0,-19,-19,7
9,5,-5,27,1,13,49,54,7
10,-27,-26,18,19,29,2,11,7
-9,23,-5,-44,-10,-7,30,21,7
10,-41,78,2,-46,-26,-58,-19,7
-16,53,1,-4,23,8,23,9,7
-41,-54,-32,-13,-24,-18,-30,-11,7
42,58,53,4,6,24,97,77,7
-91,-12,-64,-23,5,-10,-50,-96,7
31,2,95,75,23,19,-11,-17,7
-38,-48,-48,-39,-11,-33,-38,-52,7
32,48,13,13,-1,1,10,91,7
17,-7,-48,-21,-7,7,63,19,7
43,-10,24,15,-19,-27,-49,-18,7
-11,-48,-13,38,21,36,51,21,7
-21,68,15,-45,2,1,-33,-73,7
75,-57,42,15,10,4,13,109,7
-49,66,-83,-8,-38,-18,7,-30,7
16,-84,58,0,9,-11,-36,-20,7
25,-56,5,35,5,-12,-3,21,7
-17,48,-54,-60,-59,-9,31,5,7
5,10,21,-20,13,10,-20,-57,7
42,2,-62,-10,8,26,53,31,7
-73,-39,-36,-10,0,-19,7,39,7
32,-25,-30,16,2,27,25,5,7
-1,34,1,10,0,-1,10,25,7
-46,-51,-120,-46,-19,-6,-27,-1,7
70,65,15,41,26,11,17,-7,7
11,-20,-26,-41,-21,-3,-29,-9,7
14,-8,29,-9,-11,9,52,31,7
-13,7,85,17,23,6,-49,-45,7
-4,9,-104,-39,-37,-27,3,25,7
4,14,70,24,13,12,-2,-19,7
-24,-2,-32,22,9,1,26,-2,7
-11,-28,-74,-35,-13,-19,-80,-10,7
11,3,44,10,-3,-8,32,-10,7
11,5,-74,11,24,23,31,18,7
6,-39,-89,-37,-17,-9,-10,9,7
0,39,-40,-6,24,21,29,30,7
-24,-32,55,-50,-48,-29,-28,-28,7
51,29,42,57,17,-25,-34,-3,7
-9,0,-19,-28,-6,-1,-49,-1,7
26,29,14,41,6,1,18,14,7
22,37,51,-10,-9,-4,22,-54,7
-56,-42,54,25,38,29,54,11,7
26,-6,-42,-32,-43,-31,-72,-22,7
-31,-54,-79,-20,3,18,65,11,7
6,16,99,32,7,5,-52,-24,7
17,1,66,14,22,-6,-13,15,7
7,-7,-21,-34,-15,17,56,-3,7
15,-5,-3,27,-4,-26,-18,11,7
-19,-22,-52,-8,4,-1,-19,-8,7
35,31,-2,-18,-7,17,49,38,7
-9,-12,75,42,12,10,7,7,7
9,14,86,-11,-15,-29,-66,-76,7
1,-18,-65,-2,21,24,27,72,7
-17,34,24,8,-5,-7,-9,7,7
16,34,91,10,1,-3,22,18,7
-11,-4,-65,-13,2,-5,-3,-39,7
-94,2,-2,11,-9,2,27,-5,7
-43,-17,-29,13,-2,-17,-58,-16,7
-13,-46,-56,-22,-2,5,-17,15,7
-3,11,10,-9,5,2,-30,-91,7
-5,-15,-36,-30,3,11,40,45,7
24,-14,-127,-29,-19,-30,-60,-16,7
-2,24,82,56,32,-1,-4,12,7
36,45,-41,-50,-17,5,42,64,7
-6,-37,-77,36,3,5,-7,-16,7
-22,-13,-42,-51,-36,-2,30,3,7
39,-24,-20,28,22,2,15,1,7
-25,39,64,19,27,23,4,-27,7
46,-3,-14,-13,-10,-32,24,54,7
2,9,65,61,15,-7,-75,-62,7
2,19,86,-26,-32,-13,7,-46,7
-17,-48,-84,-27,-16,-16,-3,3,7
-7,-1,39,18,16,17,-1,-16,7
6,47,-15,-16,6,16,24,73,7
13,-18,-9,21,14,11,52,-29,7
1,24,38,41,14,-13,-24,21,7
10,8,51,-24,-21,-9,-31,-28,7
-5,-4,-38,-21,-5,10,37,30,7
-6,-2,53,16,7,4,-18,13,7
15,-8,-80,-28,-4,22,54,57,7
-77,-37,-42,30,24,-15,-57,-82,7
34,27,78,18,-13,-16,11,1,7
-42,-1,3,-3,3,-2,-45,-62,7
31,-1,42,-1,11,22,60,25,7
-16,3,-26,-9,-14,-11,-48,16,7
-7,61,4,5,15,10,90,63,7
-25,-68,-44,8,-2,-22,-35,-18,7
13,5,-60,-30,-17,4,-28,-3,7
43,34,45,-7,7,26,21,21,7
55,19,-7,-4,-5,7,72,-14,7
-54,-18,30,26,0,-49,-77,1,7
-17,4,31,29,0,-11,-9,-1,7
82,26,-96,-47,8,5,30,-11,7
-53,-80,-21,-17,-38,-4,-36,-16,7
25,31,-18,26,29,33,50,47,7
12,-8,12,11,-7,-12,-40,-31,7
-39,-33,-59,-9,7,0,28,-38,7
-29,-20,83,1,1,-9,-42,21,7
43,35,-128,-59,-15,-20,-48,-29,7
0,18,84,62,26,24,98,84,7
49,-16,56,3,-11,2,-91,-12,7
-11,-62,-128,-28,1,-14,-18,-70,7
-37,39,53,-15,-18,12,37,-46,7
54,8,21,0,7,0,-19,-19,7
9,5,-5,27,1,13,49,54,7
10,-27,-26,18,19,29,2,11,7
-9,23,-5,-44,-10,-7,30,21,7
10,-41,78,2,-46,-26,-58,-19,7
-16,53,1,-4,23,8,23,9,7
-41,-54,-32,-13,-24,-18,-30,-11,7
42,58,53,4,6,24,97,77,7
-91,-12,-64,-23,5,-10,-50,-96,7
31,2,95,75,23,19,-11,-17,7
-38,-48,-48,-39,-11,-33,-38,-52,7
32,48,13,13,-1,1,10,91,7
17,-7,-48,-21,-7,7,63,19,7
43,-10,24,15,-19,-27,-49,-18,7
-11,-48,-13,38,21,36,51,21,7
-21,68,15,-45,2,1,-33,-73,7
75,-57,42,15,10,4,13,109,7
-49,66,-83,-8,-38,-18,7,-30,7
16,-84,58,0,9,-11,-36,-20,7
25,-56,5,35,5,-12,-3,21,7
-72,-55,-23,-55,-7,3,-57,-66,7
-29,36,24,-5,-16,6,54,32,7
94,66,48,14,13,3,22,76,7
-84,-100,-82,4,7,10,-12,-44,7
-18,93,76,36,-22,-43,-63,-1,7
-1,-7,-121,-37,8,-6,10,-1,7
-5,31,87,9,7,14,-6,-48,7
41,80,-61,11,5,36,31,45,7
-47,-100,-90,-13,-12,-49,-30,-46,7
-1,33,45,-13,-4,10,9,3,7
-18,79,-16,-4,3,-7,-5,12,7
58,7,-15,-22,-19,15,81,61,7
0,-32,-41,22,4,-7,-87,-96,7
-28,-73,48,50,18,1,39,-3,7
-1,-41,-81,-109,-32,19,53,20,7
-21,-74,21,8,-15,-27,-52,-54,7
22,97,9,21,6,19,39,34,7
11,-68,42,-9,13,2,-2,35,7
17,125,62,58,23,7,1,10,7
-20,-33,-38,-2,-4,2,-59,-65,7
-36,-4,28,-18,-4,-13,16,22,7
31,67,-32,-32,-10,-13,-24,-7,7
51,29,42,57,17,-25,-34,-3,7
-9,0,-19,-28,-6,-1,-49,-1,7
26,29,14,41,6,1,18,14,7
22,37,51,-10,-9,-4,22,-54,7
-56,-42,54,25,38,29,54,11,7
26,-6,-42,-32,-43,-31,-72,-22,7
-31,-54,-79,-20,3,18,65,11,7
6,16,99,32,7,5,-52,-24,7
17,1,66,14,22,-6,-13,15,7
7,-7,-21,-34,-15,17,56,-3,7
15,-5,-3,27,-4,-26,-18,11,7
-19,-22,-52,-8,4,-1,-19,-8,7
35,31,-2,-18,-7,17,49,38,7
-9,-12,75,42,12,10,7,7,7
9,14,86,-11,-15,-29,-66,-76,7
1,-18,-65,-2,21,24,27,72,7
-17,34,24,8,-5,-7,-9,7,7
16,34,91,10,1,-3,22,18,7
-11,-4,-65,-13,2,-5,-3,-39,7
-94,2,-2,11,-9,2,27,-5,7
-43,-17,-29,13,-2,-17,-58,-16,7
-13,-46,-56,-22,-2,5,-17,15,7
-3,11,10,-9,5,2,-30,-91,7
-5,-15,-36,-30,3,11,40,45,7
24,-14,-127,-29,-19,-30,-60,-16,7
-2,24,82,56,32,-1,-4,12,7
36,45,-41,-50,-17,5,42,64,7
-6,-37,-77,36,3,5,-7,-16,7
-22,-13,-42,-51,-36,-2,30,3,7
39,-24,-20,28,22,2,15,1,7
-25,39,64,19,27,23,4,-27,7
46,-3,-14,-13,-10,-32,24,54,7
2,9,65,61,15,-7,-75,-62,7
2,19,86,-26,-32,-13,7,-46,7
-17,-48,-84,-27,-16,-16,-3,3,7
-7,-1,39,18,16,17,-1,-16,7
6,47,-15,-16,6,16,24,73,7
13,-18,-9,21,14,11,52,-29,7
1,24,38,41,14,-13,-24,21,7
10,8,51,-24,-21,-9,-31,-28,7
-5,-4,-38,-21,-5,10,37,30,7
-6,-2,53,16,7,4,-18,13,7
15,-8,-80,-28,-4,22,54,57,7
-77,-37,-42,30,24,-15,-57,-82,7
34,27,78,18,-13,-16,11,1,7
-42,-1,3,-3,3,-2,-45,-62,7
31,-1,42,-1,11,22,60,25,7
-16,3,-26,-9,-14,-11,-48,16,7
-7,61,4,5,15,10,90,63,7
-25,-68,-44,8,-2,-22,-35,-18,7
13,5,-60,-30,-17,4,-28,-3,7
43,34,45,-7,7,26,21,21,7
55,19,-7,-4,-5,7,72,-14,7
-54,-18,30,26,0,-49,-77,1,7
-17,4,31,29,0,-11,-9,-1,7
82,26,-96,-47,8,5,30,-11,7
-53,-80,-21,-17,-38,-4,-36,-16,7
25,31,-18,26,29,33,50,47,7
12,-8,12,11,-7,-12,-40,-31,7
-39,-33,-59,-9,7,0,28,-38,7
-29,-20,83,1,1,-9,-42,21,7
43,35,-128,-59,-15,-20,-48,-29,7
0,18,84,62,26,24,98,84,7
49,-16,56,3,-11,2,-91,-12,7
-11,-62,-128,-28,1,-14,-18,-70,7
-37,39,53,-15,-18,12,37,-46,7
54,8,21,0,7,0,-19,-19,7
9,5,-5,27,1,13,49,54,7
10,-27,-26,18,19,29,2,11,7
-9,23,-5,-44,-10,-7,30,21,7
10,-41,78,2,-46,-26,-58,-19,7
-16,53,1,-4,23,8,23,9,7
-41,-54,-32,-13,-24,-18,-30,-11,7
42,58,53,4,6,24,97,77,7
-91,-12,-64,-23,5,-10,-50,-96,7
31,2,95,75,23,19,-11,-17,7
-38,-48,-48,-39,-11,-33,-38,-52,7
32,48,13,13,-1,1,10,91,7
17,-7,-48,-21,-7,7,63,19,7
43,-10,24,15,-19,-27,-49,-18,7
-11,-48,-13,38,21,36,51,21,7
-21,68,15,-45,2,1,-33,-73,7
75,-57,42,15,10,4,13,109,7
-49,66,-83,-8,-38,-18,7,-30,7
16,-84,58,0,9,-11,-36,-20,7
25,-56,5,35,5,-12,-3,21,7
-72,-55,-23,-55,-7,3,-57,-66,7
-29,36,24,-5,-16,6,54,32,7
94,66,48,14,13,3,22,76,7
-84,-100,-82,4,7,10,-12,-44,7
-18,93,76,36,-22,-43,-63,-1,7
-1,-7,-121,-37,8,-6,10,-1,7
-5,31,87,9,7,14,-6,-48,7
41,80,-61,11,5,36,31,45,7
-47,-100,-90,-13,-12,-49,-30,-46,7
-1,33,45,-13,-4,10,9,3,7
-18,79,-16,-4,3,-7,-5,12,7
58,7,-15,-22,-19,15,81,61,7
0,-32,-41,22,4,-7,-87,-96,7
-28,-73,48,50,18,1,39,-3,7
-1,-41,-81,-109,-32,19,53,20,7
-21,-74,21,8,-15,-27,-52,-54,7
22,97,9,21,6,19,39,34,7
11,-68,42,-9,13,2,-2,35,7
17,125,62,58,23,7,1,10,7
-20,-33,-38,-2,-4,2,-59,-65,7
-36,-4,28,-18,-4,-13,16,22,7
31,67,-32,-32,-10,-13,-24,-7,7
-24,-70,-46,9,7,-3,6,-38,7
-9,16,35,4,-11,-27,-41,34,7
29,46,-39,2,7,27,69,27,7
-45,-44,47,-18,-6,3,-106,-30,7
19,7,-74,35,7,-2,41,36,7
-10,-31,-75,-64,-12,-14,-7,-22,7
-7,65,-18,-46,-17,6,35,26,7
39,-46,77,69,20,4,-13,21,7
18,33,-28,-8,-8,-5,-20,-14,7
-47,-25,-45,36,18,27,50,-10,7
17,-2,4,-4,7,6,41,83,7
48,6,-27,-47,-28,-18,-68,-37,7
-96,4,23,3,5,1,-76,-85,7
12,18,25,19,-3,-12,7,26,7
55,-87,-27,12,23,24,56,37,7
9,14,-8,-36,-26,-35,-8,-13,7
-12,68,70,24,7,-12,-56,2,7
27,-21,-41,-33,-10,2,29,33,7
-41,14,97,55,-4,3,20,-5,7
41,-9,-69,8,19,15,-3,-3,7
-43,-17,-29,13,-2,-17,-58,-16,7
-13,-46,-56,-22,-2,5,-17,15,7
-3,11,10,-9,5,2,-30,-91,7
-5,-15,-36,-30,3,11,40,45,7
24,-14,-127,-29,-19,-30,-60,-16,7
-2,24,82,56,32,-1,-4,12,7
36,45,-41,-50,-17,5,42,64,7
-6,-37,-77,36,3,5,-7,-16,7
-22,-13,-42,-51,-36,-2,30,3,7
39,-24,-20,28,22,2,15,1,7
-25,39,64,19,27,23,4,-27,7
46,-3,-14,-13,-10,-32,24,54,7
2,9,65,61,15,-7,-75,-62,7
2,19,86,-26,-32,-13,7,-46,7
-17,-48,-84,-27,-16,-16,-3,3,7
-7,-1,39,18,16,17,-1,-16,7
6,47,-15,-16,6,16,24,73,7
13,-18,-9,21,14,11,52,-29,7
1,24,38,41,14,-13,-24,21,7
10,8,51,-24,-21,-9,-31,-28,7
-5,-4,-38,-21,-5,10,37,30,7
-6,-2,53,16,7,4,-18,13,7
15,-8,-80,-28,-4,22,54,57,7
-77,-37,-42,30,24,-15,-57,-82,7
34,27,78,18,-13,-16,11,1,7
-42,-1,3,-3,3,-2,-45,-62,7
31,-1,42,-1,11,22,60,25,7
-16,3,-26,-9,-14,-11,-48,16,7
-7,61,4,5,15,10,90,63,7
-25,-68,-44,8,-2,-22,-35,-18,7
13,5,-60,-30,-17,4,-28,-3,7
43,34,45,-7,7,26,21,21,7
55,19,-7,-4,-5,7,72,-14,7
-54,-18,30,26,0,-49,-77,1,7
-17,4,31,29,0,-11,-9,-1,7
82,26,-96,-47,8,5,30,-11,7
-53,-80,-21,-17,-38,-4,-36,-16,7
25,31,-18,26,29,33,50,47,7
12,-8,12,11,-7,-12,-40,-31,7
-39,-33,-59,-9,7,0,28,-38,7
-29,-20,83,1,1,-9,-42,21,7
43,35,-128,-59,-15,-20,-48,-29,7
0,18,84,62,26,24,98,84,7
49,-16,56,3,-11,2,-91,-12,7
-11,-62,-128,-28,1,-14,-18,-70,7
-37,39,53,-15,-18,12,37,-46,7
54,8,21,0,7,0,-19,-19,7
9,5,-5,27,1,13,49,54,7
10,-27,-26,18,19,29,2,11,7
-9,23,-5,-44,-10,-7,30,21,7
10,-41,78,2,-46,-26,-58,-19,7
-16,53,1,-4,23,8,23,9,7
-41,-54,-32,-13,-24,-18,-30,-11,7
42,58,53,4,6,24,97,77,7
-91,-12,-64,-23,5,-10,-50,-96,7
31,2,95,75,23,19,-11,-17,7
-38,-48,-48,-39,-11,-33,-38,-52,7
32,48,13,13,-1,1,10,91,7
17,-7,-48,-21,-7,7,63,19,7
43,-10,24,15,-19,-27,-49,-18,7
-11,-48,-13,38,21,36,51,21,7
-21,68,15,-45,2,1,-33,-73,7
75,-57,42,15,10,4,13,109,7
-49,66,-83,-8,-38,-18,7,-30,7
16,-84,58,0,9,-11,-36,-20,7
25,-56,5,35,5,-12,-3,21,7
-72,-55,-23,-55,-7,3,-57,-66,7
-29,36,24,-5,-16,6,54,32,7
94,66,48,14,13,3,22,76,7
-84,-100,-82,4,7,10,-12,-44,7
-18,93,76,36,-22,-43,-63,-1,7
-1,-7,-121,-37,8,-6,10,-1,7
-5,31,87,9,7,14,-6,-48,7
41,80,-61,11,5,36,31,45,7
-47,-100,-90,-13,-12,-49,-30,-46,7
-1,33,45,-13,-4,10,9,3,7
-18,79,-16,-4,3,-7,-5,12,7
58,7,-15,-22,-19,15,81,61,7
0,-32,-41,22,4,-7,-87,-96,7
-28,-73,48,50,18,1,39,-3,7
-1,-41,-81,-109,-32,19,53,20,7
-21,-74,21,8,-15,-27,-52,-54,7
22,97,9,21,6,19,39,34,7
11,-68,42,-9,13,2,-2,35,7
17,125,62,58,23,7,1,10,7
-20,-33,-38,-2,-4,2,-59,-65,7
-36,-4,28,-18,-4,-13,16,22,7
31,67,-32,-32,-10,-13,-24,-7,7
-24,-70,-46,9,7,-3,6,-38,7
-9,16,35,4,-11,-27,-41,34,7
29,46,-39,2,7,27,69,27,7
-45,-44,47,-18,-6,3,-106,-30,7
19,7,-74,35,7,-2,41,36,7
-10,-31,-75,-64,-12,-14,-7,-22,7
-7,65,-18,-46,-17,6,35,26,7
39,-46,77,69,20,4,-13,21,7
18,33,-28,-8,-8,-5,-20,-14,7
-47,-25,-45,36,18,27,50,-10,7
17,-2,4,-4,7,6,41,83,7
48,6,-27,-47,-28,-18,-68,-37,7
-96,4,23,3,5,1,-76,-85,7
12,18,25,19,-3,-12,7,26,7
55,-87,-27,12,23,24,56,37,7
9,14,-8,-36,-26,-35,-8,-13,7
-12,68,70,24,7,-12,-56,2,7
27,-21,-41,-33,-10,2,29,33,7
-41,14,97,55,-4,3,20,-5,7
41,-9,-69,8,19,15,-3,-3,7
16,-46,-73,-6,8,26,122,96,7
-56,-48,56,-8,-7,-40,-112,-94,7
-9,20,-17,-25,-18,-3,33,41,7
-21,-16,-42,-32,-1,23,73,47,7
10,22,66,-5,-13,-27,11,4,7
11,-20,21,38,24,12,19,21,7
10,16,68,39,0,-14,-72,-42,7
-36,4,-57,21,0,21,67,-30,7
26,-56,-73,-66,-6,-10,-11,18,7
-1,65,5,21,10,15,63,-20,7
53,-21,-67,-21,-7,11,7,-15,7
-37,-24,14,5,-10,-38,-26,5,7
-18,-28,103,41,20,23,19,-27,7
36,-20,18,15,-7,-9,-21,53,7
-19,23,-55,-27,3,7,-11,-40,7
-1,-32,-67,-24,5,9,29,-4,7
-17,-6,-15,15,-5,-22,-20,3,7
19,11,-53,-29,-25,-8,-13,5,7
-60,-17,90,24,15,3,-11,6,7
-14,34,-84,-5,15,8,60,5,7
15,-8,-80,-28,-4,22,54,57,7
-77,-37,-42,30,24,-15,-57,-82,7
34,27,78,18,-13,-16,11,1,7
-42,-1,3,-3,3,-2,-45,-62,7
31,-1,42,-1,11,22,60,25,7
-16,3,-26,-9,-14,-11,-48,16,7
-7,61,4,5,15,10,90,63,7
-25,-68,-44,8,-2,-22,-35,-18,7
13,5,-60,-30,-17,4,-28,-3,7
43,34,45,-7,7,26,21,21,7
55,19,-7,-4,-5,7,72,-14,7
-54,-18,30,26,0,-49,-77,1,7
-17,4,31,29,0,-11,-9,-1,7
82,26,-96,-47,8,5,30,-11,7
-53,-80,-21,-17,-38,-4,-36,-16,7
25,31,-18,26,29,33,50,47,7
12,-8,12,11,-7,-12,-40,-31,7
-39,-33,-59,-9,7,0,28,-38,7
-29,-20,83,1,1,-9,-42,21,7
43,35,-128,-59,-15,-20,-48,-29,7
0,18,84,62,26,24,98,84,7
49,-16,56,3,-11,2,-91,-12,7
-11,-62,-128,-28,1,-14,-18,-70,7
-37,39,53,-15,-18,12,37,-46,7
54,8,21,0,7,0,-19,-19,7
9,5,-5,27,1,13,49,54,7
10,-27,-26,18,19,29,2,11,7
-9,23,-5,-44,-10,-7,30,21,7
10,-41,78,2,-46,-26,-58,-19,7
-16,53,1,-4,23,8,23,9,7
-41,-54,-32,-13,-24,-18,-30,-11,7
42,58,53,4,6,24,97,77,7
-91,-12,-64,-23,5,-10,-50,-96,7
31,2,95,75,23,19,-11,-17,7
-38,-48,-48,-39,-11,-33,-38,-52,7
32,48,13,13,-1,1,10,91,7
17,-7,-48,-21,-7,7,63,19,7
43,-10,24,15,-19,-27,-49,-18,7
-11,-48,-13,38,21,36,51,21,7
-21,68,15,-45,2,1,-33,-73,7
75,-57,42,15,10,4,13,109,7
-49,66,-83,-8,-38,-18,7,-30,7
16,-84,58,0,9,-11,-36,-20,7
25,-56,5,35,5,-12,-3,21,7
-72,-55,-23,-55,-7,3,-57,-66,7
-29,36,24,-5,-16,6,54,32,7
94,66,48,14,13,3,22,76,7
-84,-100,-82,4,7,10,-12,-44,7
-18,93,76,36,-22,-43,-63,-1,7
-1,-7,-121,-37,8,-6,10,-1,7
-5,31,87,9,7,14,-6,-48,7
41,80,-61,11,5,36,31,45,7
-47,-100,-90,-13,-12,-49,-30,-46,7
-1,33,45,-13,-4,10,9,3,7
-18,79,-16,-4,3,-7,-5,12,7
58,7,-15,-22,-19,15,81,61,7
0,-32,-41,22,4,-7,-87,-96,7
-28,-73,48,50,18,1,39,-3,7
-1,-41,-81,-109,-32,19,53,20,7
-21,-74,21,8,-15,-27,-52,-54,7
22,97,9,21,6,19,39,34,7
11,-68,42,-9,13,2,-2,35,7
17,125,62,58,23,7,1,10,7
-20,-33,-38,-2,-4,2,-59,-65,7
-36,-4,28,-18,-4,-13,16,22,7
31,67,-32,-32,-10,-13,-24,-7,7
-24,-70,-46,9,7,-3,6,-38,7
-9,16,35,4,-11,-27,-41,34,7
29,46,-39,2,7,27,69,27,7
-45,-44,47,-18,-6,3,-106,-30,7
19,7,-74,35,7,-2,41,36,7
-10,-31,-75,-64,-12,-14,-7,-22,7
-7,65,-18,-46,-17,6,35,26,7
39,-46,77,69,20,4,-13,21,7
18,33,-28,-8,-8,-5,-20,-14,7
-47,-25,-45,36,18,27,50,-10,7
17,-2,4,-4,7,6,41,83,7
48,6,-27,-47,-28,-18,-68,-37,7
-96,4,23,3,5,1,-76,-85,7
12,18,25,19,-3,-12,7,26,7
55,-87,-27,12,23,24,56,37,7
9,14,-8,-36,-26,-35,-8,-13,7
-12,68,70,24,7,-12,-56,2,7
27,-21,-41,-33,-10,2,29,33,7
-41,14,97,55,-4,3,20,-5,7
41,-9,-69,8,19,15,-3,-3,7
16,-46,-73,-6,8,26,122,96,7
-56,-48,56,-8,-7,-40,-112,-94,7
-9,20,-17,-25,-18,-3,33,41,7
-21,-16,-42,-32,-1,23,73,47,7
10,22,66,-5,-13,-27,11,4,7
11,-20,21,38,24,12,19,21,7
10,16,68,39,0,-14,-72,-42,7
-36,4,-57,21,0,21,67,-30,7
26,-56,-73,-66,-6,-10,-11,18,7
-1,65,5,21,10,15,63,-20,7
53,-21,-67,-21,-7,11,7,-15,7
-37,-24,14,5,-10,-38,-26,5,7
-18,-28,103,41,20,23,19,-27,7
36,-20,18,15,-7,-9,-21,53,7
-19,23,-55,-27,3,7,-11,-40,7
-1,-32,-67,-24,5,9,29,-4,7
-17,-6,-15,15,-5,-22,-20,3,7
19,11,-53,-29,-25,-8,-13,5,7
-60,-17,90,24,15,3,-11,6,7
-14,34,-84,-5,15,8,60,5,7
-5,-2,-109,-28,-21,-11,-67,-9,7
12,73,77,-15,-42,-24,11,-22,7
24,7,-8,18,15,10,4,12,7
-45,-61,-35,-3,-2,-14,-37,-25,7
43,68,50,20,18,36,57,73,7
-6,-26,-38,-4,14,10,32,-39,7
-5,57,-30,-18,-14,-4,-14,2,7
15,9,68,5,-7,-6,-29,-39,7
3,-52,-22,0,7,19,27,11,7
-32,-26,10,-6,-1,-17,14,-39,7
-3,-12,48,16,-5,0,-17,-39,7
-19,-14,-30,-18,-5,-14,-8,79,7
30,34,36,17,0,5,-10,-40,7
-8,-42,-25,-13,15,-1,-28,9,7
25,42,-6,26,-12,-6,30,31,7
-2,-2,80,-21,-25,6,24,69,7
-40,3,-97,3,8,0,-26,-103,7
16,-24,48,8,10,11,33,27,7
-36,4,-43,22,8,-13,-5,7,7
67,78,12,-14,1,4,-20,32,7
-46,-61,-16,-44,-31,-26,-36,-44,7
25,12,46,23,14,28,49,83,7
-29,-20,83,1,1,-9,-42,21,7
43,35,-128,-59,-15,-20,-48,-29,7
0,18,84,62,26,24,98,84,7
49,-16,56,3,-11,2,-91,-12,7
-11,-62,-128,-28,1,-14,-18,-70,7
-37,39,53,-15,-18,12,37,-46,7
54,8,21,0,7,0,-19,-19,7
9,5,-5,27,1,13,49,54,7
10,-27,-26,18,19,29,2,11,7
-9,23,-5,-44,-10,-7,30,21,7
10,-41,78,2,-46,-26,-58,-19,7
-16,53,1,-4,23,8,23,9,7
-41,-54,-32,-13,-24,-18,-30,-11,7
42,58,53,4,6,24,97,77,7
-91,-12,-64,-23,5,-10,-50,-96,7
31,2,95,75,23,19,-11,-17,7
-38,-48,-48,-39,-11,-33,-38,-52,7
32,48,13,13,-1,1,10,91,7
17,-7,-48,-21,-7,7,63,19,7
43,-10,24,15,-19,-27,-49,-18,7
-11,-48,-13,38,21,36,51,21,7
-21,68,15,-45,2,1,-33,-73,7
75,-57,42,15,10,4,13,109,7
-49,66,-83,-8,-38,-18,7,-30,7
16,-84,58,0,9,-11,-36,-20,7
25,-56,5,35,5,-12,-3,21,7
-72,-55,-23,-55,-7,3,-57,-66,7
-29,36,24,-5,-16,6,54,32,7
94,66,48,14,13,3,22,76,7
-84,-100,-82,4,7,10,-12,-44,7
-18,93,76,36,-22,-43,-63,-1,7
-1,-7,-121,-37,8,-6,10,-1,7
-5,31,87,9,7,14,-6,-48,7
41,80,-61,11,5,36,31,45,7
-47,-100,-90,-13,-12,-49,-30,-46,7
-1,33,45,-13,-4,10,9,3,7
-18,79,-16,-4,3,-7,-5,12,7
58,7,-15,-22,-19,15,81,61,7
0,-32,-41,22,4,-7,-87,-96,7
-28,-73,48,50,18,1,39,-3,7
-1,-41,-81,-109,-32,19,53,20,7
-21,-74,21,8,-15,-27,-52,-54,7
22,97,9,21,6,19,39,34,7
11,-68,42,-9,13,2,-2,35,7
17,125,62,58,23,7,1,10,7
-20,-33,-38,-2,-4,2,-59,-65,7
-36,-4,28,-18,-4,-13,16,22,7
31,67,-32,-32,-10,-13,-24,-7,7
-24,-70,-46,9,7,-3,6,-38,7
-9,16,35,4,-11,-27,-41,34,7
29,46,-39,2,7,27,69,27,7
-45,-44,47,-18,-6,3,-106,-30,7
19,7,-74,35,7,-2,41,36,7
-10,-31,-75,-64,-12,-14,-7,-22,7
-7,65,-18,-46,-17,6,35,26,7
39,-46,77,69,20,4,-13,21,7
18,33,-28,-8,-8,-5,-20,-14,7
-47,-25,-45,36,18,27,50,-10,7
17,-2,4,-4,7,6,41,83,7
48,6,-27,-47,-28,-18,-68,-37,7
-96,4,23,3,5,1,-76,-85,7
12,18,25,19,-3,-12,7,26,7
55,-87,-27,12,23,24,56,37,7
9,14,-8,-36,-26,-35,-8,-13,7
-12,68,70,24,7,-12,-56,2,7
27,-21,-41,-33,-10,2,29,33,7
-41,14,97,55,-4,3,20,-5,7
41,-9,-69,8,19,15,-3,-3,7
16,-46,-73,-6,8,26,122,96,7
-56,-48,56,-8,-7,-40,-112,-94,7
-9,20,-17,-25,-18,-3,33,41,7
-21,-16,-42,-32,-1,23,73,47,7
10,22,66,-5,-13,-27,11,4,7
11,-20,21,38,24,12,19,21,7
10,16,68,39,0,-14,-72,-42,7
-36,4,-57,21,0,21,67,-30,7
26,-56,-73,-66,-6,-10,-11,18,7
-1,65,5,21,10,15,63,-20,7
53,-21,-67,-21,-7,11,7,-15,7
-37,-24,14,5,-10,-38,-26,5,7
-18,-28,103,41,20,23,19,-27,7
36,-20,18,15,-7,-9,-21,53,7
-19,23,-55,-27,3,7,-11,-40,7
-1,-32,-67,-24,5,9,29,-4,7
-17,-6,-15,15,-5,-22,-20,3,7
19,11,-53,-29,-25,-8,-13,5,7
-60,-17,90,24,15,3,-11,6,7
-14,34,-84,-5,15,8,60,5,7
-5,-2,-109,-28,-21,-11,-67,-9,7
12,73,77,-15,-42,-24,11,-22,7
24,7,-8,18,15,10,4,12,7
-45,-61,-35,-3,-2,-14,-37,-25,7
43,68,50,20,18,36,57,73,7
-6,-26,-38,-4,14,10,32,-39,7
-5,57,-30,-18,-14,-4,-14,2,7
15,9,68,5,-7,-6,-29,-39,7
3,-52,-22,0,7,19,27,11,7
-32,-26,10,-6,-1,-17,14,-39,7
-3,-12,48,16,-5,0,-17,-39,7
-19,-14,-30,-18,-5,-14,-8,79,7
30,34,36,17,0,5,-10,-40,7
-8,-42,-25,-13,15,-1,-28,9,7
25,42,-6,26,-12,-6,30,31,7
-2,-2,80,-21,-25,6,24,69,7
-40,3,-97,3,8,0,-26,-103,7
16,-24,48,8,10,11,33,27,7
-36,4,-43,22,8,-13,-5,7,7
67,78,12,-14,1,4,-20,32,7
-46,-61,-16,-44,-31,-26,-36,-44,7
25,12,46,23,14,28,49,83,7
-5,-40,-54,-19,-1,-17,20,-60,7
17,-6,36,28,5,11,-22,-38,7
-3,37,-38,1,-1,0,8,24,7
-2,-21,-5,5,0,16,7,-13,7
-18,-59,-27,-3,4,-27,-49,-16,7
-25,18,-3,-21,-9,8,42,1,7
27,-23,-4,30,4,19,6,27,7
-18,48,-128,-95,-28,-25,-58,-14,7
57,9,85,-6,-13,-2,-1,50,7
-59,51,80,50,24,12,40,-86,7
2,-51,20,-3,-9,-17,-51,28,7
-12,1,-80,15,16,0,22,41,7
12,-11,20,-19,-8,3,-54,-25,7
-4,-34,-6,0,4,26,81,-23,7
-2,33,50,14,0,-25,-10,27,7
2,26,57,21,-4,-20,-9,0,7
-64,-99,-110,-35,19,15,-113,-83,7
31,43,17,32,-4,8,43,66,7
16,-84,58,0,9,-11,-36,-20,7
25,-56,5,35,5,-12,-3,21,7
-72,-55,-23,-55,-7,3,-57,-66,7
-29,36,24,-5,-16,6,54,32,7
94,66,48,14,13,3,22,76,7
-84,-100,-82,4,7,10,-12,-44,7
-18,93,76,36,-22,-43,-63,-1,7
-1,-7,-121,-37,8,-6,10,-1,7
-5,31,87,9,7,14,-6,-48,7
41,80,-61,11,5,36,31,45,7
-47,-100,-90,-13,-12,-49,-30,-46,7
-1,33,45,-13,-4,10,9,3,7
-18,79,-16,-4,3,-7,-5,12,7
58,7,-15,-22,-19,15,81,61,7
0,-32,-41,22,4,-7,-87,-96,7
-28,-73,48,50,18,1,39,-3,7
-1,-41,-81,-109,-32,19,53,20,7
-21,-74,21,8,-15,-27,-52,-54,7
22,97,9,21,6,19,39,34,7
11,-68,42,-9,13,2,-2,35,7
17,125,62,58,23,7,1,10,7
-20,-33,-38,-2,-4,2,-59,-65,7
-36,-4,28,-18,-4,-13,16,22,7
31,67,-32,-32,-10,-13,-24,-7,7
-24,-70,-46,9,7,-3,6,-38,7
-9,16,35,4,-11,-27,-41,34,7
29,46,-39,2,7,27,69,27,7
-45,-44,47,-18,-6,3,-106,-30,7
19,7,-74,35,7,-2,41,36,7
-10,-31,-75,-64,-12,-14,-7,-22,7
-7,65,-18,-46,-17,6,35,26,7
39,-46,77,69,20,4,-13,21,7
18,33,-28,-8,-8,-5,-20,-14,7
-47,-25,-45,36,18,27,50,-10,7
17,-2,4,-4,7,6,41,83,7
48,6,-27,-47,-28,-18,-68,-37,7
-96,4,23,3,5,1,-76,-85,7
12,18,25,19,-3,-12,7,26,7
55,-87,-27,12,23,24,56,37,7
9,14,-8,-36,-26,-35,-8,-13,7
-12,68,70,24,7,-12,-56,2,7
27,-21,-41,-33,-10,2,29,33,7
-41,14,97,55,-4,3,20,-5,7
41,-9,-69,8,19,15,-3,-3,7
16,-46,-73,-6,8,26,122,96,7
-56,-48,56,-8,-7,-40,-112,-94,7
-9,20,-17,-25,-18,-3,33,41,7
-21,-16,-42,-32,-1,23,73,47,7
10,22,66,-5,-13,-27,11,4,7
11,-20,21,38,24,12,19,21,7
10,16,68,39,0,-14,-72,-42,7
-36,4,-57,21,0,21,67,-30,7
26,-56,-73,-66,-6,-10,-11,18,7
-1,65,5,21,10,15,63,-20,7
53,-21,-67,-21,-7,11,7,-15,7
-37,-24,14,5,-10,-38,-26,5,7
-18,-28,103,41,20,23,19,-27,7
36,-20,18,15,-7,-9,-21,53,7
-19,23,-55,-27,3,7,-11,-40,7
-1,-32,-67,-24,5,9,29,-4,7
-17,-6,-15,15,-5,-22,-20,3,7
19,11,-53,-29,-25,-8,-13,5,7
-60,-17,90,24,15,3,-11,6,7
-14,34,-84,-5,15,8,60,5,7
-5,-2,-109,-28,-21,-11,-67,-9,7
12,73,77,-15,-42,-24,11,-22,7
24,7,-8,18,15,10,4,12,7
-45,-61,-35,-3,-2,-14,-37,-25,7
43,68,50,20,18,36,57,73,7
-6,-26,-38,-4,14,10,32,-39,7
-5,57,-30,-18,-14,-4,-14,2,7
15,9,68,5,-7,-6,-29,-39,7
3,-52,-22,0,7,19,27,11,7
-32,-26,10,-6,-1,-17,14,-39,7
-3,-12,48,16,-5,0,-17,-39,7
-19,-14,-30,-18,-5,-14,-8,79,7
30,34,36,17,0,5,-10,-40,7
-8,-42,-25,-13,15,-1,-28,9,7
25,42,-6,26,-12,-6,30,31,7
-2,-2,80,-21,-25,6,24,69,7
-40,3,-97,3,8,0,-26,-103,7
16,-24,48,8,10,11,33,27,7
-36,4,-43,22,8,-13,-5,7,7
67,78,12,-14,1,4,-20,32,7
-46,-61,-16,-44,-31,-26,-36,-44,7
25,12,46,23,14,28,49,83,7
-5,-40,-54,-19,-1,-17,20,-60,7
17,-6,36,28,5,11,-22,-38,7
-3,37,-38,1,-1,0,8,24,7
-2,-21,-5,5,0,16,7,-13,7
-18,-59,-27,-3,4,-27,-49,-16,7
-25,18,-3,-21,-9,8,42,1,7
27,-23,-4,30,4,19,6,27,7
-18,48,-128,-95,-28,-25,-58,-14,7
57,9,85,-6,-13,-2,-1,50,7
-59,51,80,50,24,12,40,-86,7
2,-51,20,-3,-9,-17,-51,28,7
-12,1,-80,15,16,0,22,41,7
12,-11,20,-19,-8,3,-54,-25,7
-4,-34,-6,0,4,26,81,-23,7
-2,33,50,14,0,-25,-10,27,7
2,26,57,21,-4,-20,-9,0,7
-64,-99,-110,-35,19,15,-113,-83,7
31,43,17,32,-4,8,43,66,7
-17,-4,-22,-19,-15,-21,-45,-51,7
11,0,26,23,13,23,49,14,7
7,13,13,-12,0,-9,-12,12,7
25,-26,-33,12,13,-7,18,23,7
-19,-3,-30,-7,-3,13,3,-52,7
-5,37,11,-20,-17,-17,9,9,7
24,22,-47,-14,-10,18,13,20,7
-26,-48,-4,6,13,2,-36,-4,7
24,50,92,-13,-13,3,44,16,7
9,-8,1,28,15,12,-15,-24,7
-5,34,-10,20,14,-2,22,10,7
20,5,-5,-44,-24,5,25,12,7
0,-29,21,20,5,-10,-42,34,7
-9,24,42,20,-1,-7,-42,-45,7
18,11,-51,-11,-5,-1,8,12,7
-3,-13,39,22,16,-12,-2,-5,7
2,18,-64,-25,-4,-11,-36,-13,7
-14,12,83,29,-9,7,5,-27,7
-18,-73,-41,14,-2,-11,24,16,7
-3,40,-16,-23,-1,16,-7,7,7
19,3,8,-27,-16,7,65,18,7
-6,-3,-32,-27,-5,-25,-68,-6,7
7,-22,-11,5,2,0,37,33,7
-43,-31,-13,5,4,-15,-63,-44,7
17,125,62,58,23,7,1,10,7
-20,-33,-38,-2,-4,2,-59,-65,7
-36,-4,28,-18,-4,-13,16,22,7
31,67,-32,-32,-10,-13,-24,-7,7
-24,-70,-46,9,7,-3,6,-38,7
-9,16,35,4,-11,-27,-41,34,7
29,46,-39,2,7,27,69,27,7
-45,-44,47,-18,-6,3,-106,-30,7
19,7,-74,35,7,-2,41,36,7
-10,-31,-75,-64,-12,-14,-7,-22,7
-7,65,-18,-46,-17,6,35,26,7
39,-46,77,69,20,4,-13,21,7
18,33,-28,-8,-8,-5,-20,-14,7
-47,-25,-45,36,18,27,50,-10,7
17,-2,4,-4,7,6,41,83,7
48,6,-27,-47,-28,-18,-68,-37,7
-96,4,23,3,5,1,-76,-85,7
12,18,25,19,-3,-12,7,26,7
55,-87,-27,12,23,24,56,37,7
9,14,-8,-36,-26,-35,-8,-13,7
-12,68,70,24,7,-12,-56,2,7
27,-21,-41,-33,-10,2,29,33,7
-41,14,97,55,-4,3,20,-5,7
41,-9,-69,8,19,15,-3,-3,7
16,-46,-73,-6,8,26,122,96,7
-56,-48,56,-8,-7,-40,-112,-94,7
-9,20,-17,-25,-18,-3,33,41,7
-21,-16,-42,-32,-1,23,73,47,7
10,22,66,-5,-13,-27,11,4,7
11,-20,21,38,24,12,19,21,7
10,16,68,39,0,-14,-72,-42,7
-36,4,-57,21,0,21,67,-30,7
26,-56,-73,-66,-6,-10,-11,18,7
-1,65,5,21,10,15,63,-20,7
53,-21,-67,-21,-7,11,7,-15,7
-37,-24,14,5,-10,-38,-26,5,7
-18,-28,103,41,20,23,19,-27,7
36,-20,18,15,-7,-9,-21,53,7
-19,23,-55,-27,3,7,-11,-40,7
-1,-32,-67,-24,5,9,29,-4,7
-17,-6,-15,15,-5,-22,-20,3,7
19,11,-53,-29,-25,-8,-13,5,7
-60,-17,90,24,15,3,-11,6,7
-14,34,-84,-5,15,8,60,5,7
-5,-2,-109,-28,-21,-11,-67,-9,7
12,73,77,-15,-42,-24,11,-22,7
24,7,-8,18,15,10,4,12,7
-45,-61,-35,-3,-2,-14,-37,-25,7
43,68,50,20,18,36,57,73,7
-6,-26,-38,-4,14,10,32,-39,7
-5,57,-30,-18,-14,-4,-14,2,7
15,9,68,5,-7,-6,-29,-39,7
3,-52,-22,0,7,19,27,11,7
-32,-26,10,-6,-1,-17,14,-39,7
-3,-12,48,16,-5,0,-17,-39,7
-19,-14,-30,-18,-5,-14,-8,79,7
30,34,36,17,0,5,-10,-40,7
-8,-42,-25,-13,15,-1,-28,9,7
25,42,-6,26,-12,-6,30,31,7
-2,-2,80,-21,-25,6,24,69,7
-40,3,-97,3,8,0,-26,-103,7
16,-24,48,8,10,11,33,27,7
-36,4,-43,22,8,-13,-5,7,7
67,78,12,-14,1,4,-20,32,7
-46,-61,-16,-44,-31,-26,-36,-44,7
25,12,46,23,14,28,49,83,7
-5,-40,-54,-19,-1,-17,20,-60,7
17,-6,36,28,5,11,-22,-38,7
-3,37,-38,1,-1,0,8,24,7
-2,-21,-5,5,0,16,7,-13,7
-18,-59,-27,-3,4,-27,-49,-16,7
-25,18,-3,-21,-9,8,42,1,7
27,-23,-4,30,4,19,6,27,7
-18,48,-128,-95,-28,-25,-58,-14,7
57,9,85,-6,-13,-2,-1,50,7
-59,51,80,50,24,12,40,-86,7
2,-51,20,-3,-9,-17,-51,28,7
-12,1,-80,15,16,0,22,41,7
12,-11,20,-19,-8,3,-54,-25,7
-4,-34,-6,0,4,26,81,-23,7
-2,33,50,14,0,-25,-10,27,7
2,26,57,21,-4,-20,-9,0,7
-64,-99,-110,-35,19,15,-113,-83,7
31,43,17,32,-4,8,43,66,7
-17,-4,-22,-19,-15,-21,-45,-51,7
11,0,26,23,13,23,49,14,7
7,13,13,-12,0,-9,-12,12,7
25,-26,-33,12,13,-7,18,23,7
-19,-3,-30,-7,-3,13,3,-52,7
-5,37,11,-20,-17,-17,9,9,7
24,22,-47,-14,-10,18,13,20,7
-26,-48,-4,6,13,2,-36,-4,7
24,50,92,-13,-13,3,44,16,7
9,-8,1,28,15,12,-15,-24,7
-5,34,-10,20,14,-2,22,10,7
20,5,-5,-44,-24,5,25,12,7
0,-29,21,20,5,-10,-42,34,7
-9,24,42,20,-1,-7,-42,-45,7
18,11,-51,-11,-5,-1,8,12,7
-3,-13,39,22,16,-12,-2,-5,7
2,18,-64,-25,-4,-11,-36,-13,7
-14,12,83,29,-9,7,5,-27,7
-18,-73,-41,14,-2,-11,24,16,7
-3,40,-16,-23,-1,16,-7,7,7
19,3,8,-27,-16,7,65,18,7
-6,-3,-32,-27,-5,-25,-68,-6,7
7,-22,-11,5,2,0,37,33,7
-43,-31,-13,5,4,-15,-63,-44,7
57,28,95,37,-4,9,48,16,7
-31,-10,-4,7,17,20,17,-8,7
-10,-11,-23,-31,-23,-8,-17,-5,7
15,23,-14,-20,-16,-20,-21,-4,7
-15,-34,-40,7,16,11,-33,-25,7
38,-4,39,27,11,-1,36,22,7
-44,-17,-7,-13,-12,16,86,15,7
5,27,42,7,-1,-23,-118,-70,7
-17,-41,-110,10,17,9,9,-1,7
0,5,26,-23,-11,-11,-6,17,7
23,10,49,29,13,20,49,27,7
-39,-42,-77,-37,-15,-12,-22,-9,7
21,62,65,21,14,16,30,20,7
-1,-5,-14,-4,-1,-4,-25,-6,7
19,33,-10,-4,-1,-4,-15,-10,7
10,-13,-26,-2,-3,5,28,36,7
-15,-10,73,17,0,-8,-16,-33,7
11,-13,-41,-33,-5,-1,-20,9,7
1,20,28,22,14,8,8,4,7
16,-6,-27,-15,-10,-5,-22,24,7
-12,68,70,24,7,-12,-56,2,7
27,-21,-41,-33,-10,2,29,33,7
-41,14,97,55,-4,3,20,-5,7
41,-9,-69,8,19,15,-3,-3,7
16,-46,-73,-6,8,26,122,96,7
-56,-48,56,-8,-7,-40,-112,-94,7
-9,20,-17,-25,-18,-3,33,41,7
-21,-16,-42,-32,-1,23,73,47,7
10,22,66,-5,-13,-27,11,4,7
11,-20,21,38,24,12,19,21,7
10,16,68,39,0,-14,-72,-42,7
-36,4,-57,21,0,21,67,-30,7
26,-56,-73,-66,-6,-10,-11,18,7
-1,65,5,21,10,15,63,-20,7
53,-21,-67,-21,-7,11,7,-15,7
-37,-24,14,5,-10,-38,-26,5,7
-18,-28,103,41,20,23,19,-27,7
36,-20,18,15,-7,-9,-21,53,7
-19,23,-55,-27,3,7,-11,-40,7
-1,-32,-67,-24,5,9,29,-4,7
-17,-6,-15,15,-5,-22,-20,3,7
19,11,-53,-29,-25,-8,-13,5,7
-60,-17,90,24,15,3,-11,6,7
-14,34,-84,-5,15,8,60,5,7
-5,-2,-109,-28,-21,-11,-67,-9,7
12,73,77,-15,-42,-24,11,-22,7
24,7,-8,18,15,10,4,12,7
-45,-61,-35,-3,-2,-14,-37,-25,7
43,68,50,20,18,36,57,73,7
-6,-26,-38,-4,14,10,32,-39,7
-5,57,-30,-18,-14,-4,-14,2,7
15,9,68,5,-7,-6,-29,-39,7
3,-52,-22,0,7,19,27,11,7
-32,-26,10,-6,-1,-17,14,-39,7
-3,-12,48,16,-5,0,-17,-39,7
-19,-14,-30,-18,-5,-14,-8,79,7
30,34,36,17,0,5,-10,-40,7
-8,-42,-25,-13,15,-1,-28,9,7
25,42,-6,26,-12,-6,30,31,7
-2,-2,80,-21,-25,6,24,69,7
-40,3,-97,3,8,0,-26,-103,7
16,-24,48,8,10,11,33,27,7
-36,4,-43,22,8,-13,-5,7,7
67,78,12,-14,1,4,-20,32,7
-46,-61,-16,-44,-31,-26,-36,-44,7
25,12,46,23,14,28,49,83,7
-5,-40,-54,-19,-1,-17,20,-60,7
17,-6,36,28,5,11,-22,-38,7
-3,37,-38,1,-1,0,8,24,7
-2,-21,-5,5,0,16,7,-13,7
-18,-59,-27,-3,4,-27,-49,-16,7
-25,18,-3,-21,-9,8,42,1,7
27,-23,-4,30,4,19,6,27,7
-18,48,-128,-95,-28,-25,-58,-14,7
57,9,85,-6,-13,-2,-1,50,7
-59,51,80,50,24,12,40,-86,7
2,-51,20,-3,-9,-17,-51,28,7
-12,1,-80,15,16,0,22,41,7
12,-11,20,-19,-8,3,-54,-25,7
-4,-34,-6,0,4,26,81,-23,7
-2,33,50,14,0,-25,-10,27,7
2,26,57,21,-4,-20,-9,0,7
-64,-99,-110,-35,19,15,-113,-83,7
31,43,17,32,-4,8,43,66,7
-17,-4,-22,-19,-15,-21,-45,-51,7
11,0,26,23,13,23,49,14,7
7,13,13,-12,0,-9,-12,12,7
25,-26,-33,12,13,-7,18,23,7
-19,-3,-30,-7,-3,13,3,-52,7
-5,37,11,-20,-17,-17,9,9,7
24,22,-47,-14,-10,18,13,20,7
-26,-48,-4,6,13,2,-36,-4,7
24,50,92,-13,-13,3,44,16,7
9,-8,1,28,15,12,-15,-24,7
-5,34,-10,20,14,-2,22,10,7
20,5,-5,-44,-24,5,25,12,7
0,-29,21,20,5,-10,-42,34,7
-9,24,42,20,-1,-7,-42,-45,7
18,11,-51,-11,-5,-1,8,12,7
-3,-13,39,22,16,-12,-2,-5,7
2,18,-64,-25,-4,-11,-36,-13,7
-14,12,83,29,-9,7,5,-27,7
-18,-73,-41,14,-2,-11,24,16,7
-3,40,-16,-23,-1,16,-7,7,7
19,3,8,-27,-16,7,65,18,7
-6,-3,-32,-27,-5,-25,-68,-6,7
7,-22,-11,5,2,0,37,33,7
-43,-31,-13,5,4,-15,-63,-44,7
57,28,95,37,-4,9,48,16,7
-31,-10,-4,7,17,20,17,-8,7
-10,-11,-23,-31,-23,-8,-17,-5,7
15,23,-14,-20,-16,-20,-21,-4,7
-15,-34,-40,7,16,11,-33,-25,7
38,-4,39,27,11,-1,36,22,7
-44,-17,-7,-13,-12,16,86,15,7
5,27,42,7,-1,-23,-118,-70,7
-17,-41,-110,10,17,9,9,-1,7
0,5,26,-23,-11,-11,-6,17,7
23,10,49,29,13,20,49,27,7
-39,-42,-77,-37,-15,-12,-22,-9,7
21,62,65,21,14,16,30,20,7
-1,-5,-14,-4,-1,-4,-25,-6,7
19,33,-10,-4,-1,-4,-15,-10,7
10,-13,-26,-2,-3,5,28,36,7
-15,-10,73,17,0,-8,-16,-33,7
11,-13,-41,-33,-5,-1,-20,9,7
1,20,28,22,14,8,8,4,7
16,-6,-27,-15,-10,-5,-22,24,7
-14,-27,28,6,12,13,58,1,7
9,46,-9,29,0,-22,-34,2,7
2,1,73,-22,-18,-7,3,-56,7
-24,-8,-28,13,1,7,-4,34,7
0,1,-46,2,12,-8,-50,-34,7
-4,-10,28,-26,-21,14,39,12,7
6,9,33,42,10,-20,-41,13,7
2,-14,-47,-16,-12,-5,47,-37,7
-9,43,22,-11,-12,-2,-9,7,7
13,-19,-5,1,17,45,116,49,7
-11,0,-74,-30,-1,-61,-118,-46,7
-8,-5,55,38,-13,0,39,24,7
-11,2,-102,-45,-6,13,25,13,7
5,-10,-22,21,-1,-8,-36,-19,7
1,-55,-37,-38,-2,2,35,18,7
5,-4,-4,4,11,-1,17,5,7
6,24,77,13,3,-13,-8,-1,7
25,-28,-57,-6,3,15,0,25,7
-64,11,105,19,-4,5,16,-37,7
16,18,-58,-12,3,-10,-32,-25,7
-5,-2,-109,-28,-21,-11,-67,-9,7
12,73,77,-15,-42,-24,11,-22,7
24,7,-8,18,15,10,4,12,7
-45,-61,-35,-3,-2,-14,-37,-25,7
43,68,50,20,18,36,57,73,7
-6,-26,-38,-4,14,10,32,-39,7
-5,57,-30,-18,-14,-4,-14,2,7
15,9,68,5,-7,-6,-29,-39,7
3,-52,-22,0,7,19,27,11,7
-32,-26,10,-6,-1,-17,14,-39,7
-3,-12,48,16,-5,0,-17,-39,7
-19,-14,-30,-18,-5,-14,-8,79,7
30,34,36,17,0,5,-10,-40,7
-8,-42,-25,-13,15,-1,-28,9,7
25,42,-6,26,-12,-6,30,31,7
-2,-2,80,-21,-25,6,24,69,7
-40,3,-97,3,8,0,-26,-103,7
16,-24,48,8,10,11,33,27,7
-36,4,-43,22,8,-13,-5,7,7
67,78,12,-14,1,4,-20,32,7
-46,-61,-16,-44,-31,-26,-36,-44,7
25,12,46,23,14,28,49,83,7
-5,-40,-54,-19,-1,-17,20,-60,7
17,-6,36,28,5,11,-22,-38,7
-3,37,-38,1,-1,0,8,24,7
-2,-21,-5,5,0,16,7,-13,7
-18,-59,-27,-3,4,-27,-49,-16,7
-25,18,-3,-21,-9,8,42,1,7
27,-23,-4,30,4,19,6,27,7
-18,48,-128,-95,-28,-25,-58,-14,7
57,9,85,-6,-13,-2,-1,50,7
-59,51,80,50,24,12,40,-86,7
2,-51,20,-3,-9,-17,-51,28,7
-12,1,-80,15,16,0,22,41,7
12,-11,20,-19,-8,3,-54,-25,7
-4,-34,-6,0,4,26,81,-23,7
-2,33,50,14,0,-25,-10,27,7
2,26,57,21,-4,-20,-9,0,7
-64,-99,-110,-35,19,15,-113,-83,7
31,43,17,32,-4,8,43,66,7
-17,-4,-22,-19,-15,-21,-45,-51,7
11,0,26,23,13,23,49,14,7
7,13,13,-12,0,-9,-12,12,7
25,-26,-33,12,13,-7,18,23,7
-19,-3,-30,-7,-3,13,3,-52,7
-5,37,11,-20,-17,-17,9,9,7
24,22,-47,-14,-10,18,13,20,7
-26,-48,-4,6,13,2,-36,-4,7
24,50,92,-13,-13,3,44,16,7
9,-8,1,28,15,12,-15,-24,7
-5,34,-10,20,14,-2,22,10,7
20,5,-5,-44,-24,5,25,12,7
0,-29,21,20,5,-10,-42,34,7
-9,24,42,20,-1,-7,-42,-45,7
18,11,-51,-11,-5,-1,8,12,7
-3,-13,39,22,16,-12,-2,-5,7
2,18,-64,-25,-4,-11,-36,-13,7
-14,12,83,29,-9,7,5,-27,7
-18,-73,-41,14,-2,-11,24,16,7
-3,40,-16,-23,-1,16,-7,7,7
19,3,8,-27,-16,7,65,18,7
-6,-3,-32,-27,-5,-25,-68,-6,7
7,-22,-11,5,2,0,37,33,7
-43,-31,-13,5,4,-15,-63,-44,7
57,28,95,37,-4,9,48,16,7
-31,-10,-4,7,17,20,17,-8,7
-10,-11,-23,-31,-23,-8,-17,-5,7
15,23,-14,-20,-16,-20,-21,-4,7
-15,-34,-40,7,16,11,-33,-25,7
38,-4,39,27,11,-1,36,22,7
-44,-17,-7,-13,-12,16,86,15,7
5,27,42,7,-1,-23,-118,-70,7
-17,-41,-110,10,17,9,9,-1,7
0,5,26,-23,-11,-11,-6,17,7
23,10,49,29,13,20,49,27,7
-39,-42,-77,-37,-15,-12,-22,-9,7
21,62,65,21,14,16,30,20,7
-1,-5,-14,-4,-1,-4,-25,-6,7
19,33,-10,-4,-1,-4,-15,-10,7
10,-13,-26,-2,-3,5,28,36,7
-15,-10,73,17,0,-8,-16,-33,7
11,-13,-41,-33,-5,-1,-20,9,7
1,20,28,22,14,8,8,4,7
16,-6,-27,-15,-10,-5,-22,24,7
-14,-27,28,6,12,13,58,1,7
9,46,-9,29,0,-22,-34,2,7
2,1,73,-22,-18,-7,3,-56,7
-24,-8,-28,13,1,7,-4,34,7
0,1,-46,2,12,-8,-50,-34,7
-4,-10,28,-26,-21,14,39,12,7
6,9,33,42,10,-20,-41,13,7
2,-14,-47,-16,-12,-5,47,-37,7
-9,43,22,-11,-12,-2,-9,7,7
13,-19,-5,1,17,45,116,49,7
-11,0,-74,-30,-1,-61,-118,-46,7
-8,-5,55,38,-13,0,39,24,7
-11,2,-102,-45,-6,13,25,13,7
5,-10,-22,21,-1,-8,-36,-19,7
1,-55,-37,-38,-2,2,35,18,7
5,-4,-4,4,11,-1,17,5,7
6,24,77,13,3,-13,-8,-1,7
25,-28,-57,-6,3,15,0,25,7
-64,11,105,19,-4,5,16,-37,7
16,18,-58,-12,3,-10,-32,-25,7
6,-54,1,-1,3,19,14,22,7
11,-7,-31,26,9,-12,0,-20,7
7,26,-11,5,9,28,34,21,7
44,9,61,-1,5,-7,38,74,7
-44,-5,-19,-8,-9,-28,-84,-48,7
-28,-47,-74,-24,-5,-14,-41,-73,7
37,31,43,14,8,29,62,13,7
-23,-11,76,9,-3,-6,-58,-32,7
19,-35,-45,1,-1,-2,71,49,7
-14,1,86,-14,-13,-4,-7,17,7
-8,22,-41,13,18,9,-25,-21,7
-3,-41,-33,-54,-53,-10,-43,-12,7
-3,-6,40,27,16,3,32,-3,7
-13,42,-22,15,5,-2,-37,-20,7
-11,-10,34,11,4,7,24,28,7
17,18,2,18,19,-15,-28,-29,7
22,21,15,-10,-13,-5,25,11,7
-27,-20,-12,-13,-12,-9,-18,40,7
17,-8,-38,-9,-6,-19,-9,13,7
-2,38,35,3,10,13,-14,-19,7
-27,9,-3,1,-9,-14,-70,-47,7
17,5,-56,-29,4,15,74,8,7
13,8,19,14,0,-13,-27,9,7
-2,-18,-30,-2,1,7,55,13,7
-46,-61,-16,-44,-31,-26,-36,-44,7
25,12,46,23,14,28,49,83,7
-5,-40,-54,-19,-1,-17,20,-60,7
17,-6,36,28,5,11,-22,-38,7
-3,37,-38,1,-1,0,8,24,7
-2,-21,-5,5,0,16,7,-13,7
-18,-59,-27,-3,4,-27,-49,-16,7
-25,18,-3,-21,-9,8,42,1,7
27,-23,-4,30,4,19,6,27,7
-18,48,-128,-95,-28,-25,-58,-14,7
57,9,85,-6,-13,-2,-1,50,7
-59,51,80,50,24,12,40,-86,7
2,-51,20,-3,-9,-17,-51,28,7
-12,1,-80,15,16,0,22,41,7
12,-11,20,-19,-8,3,-54,-25,7
-4,-34,-6,0,4,26,81,-23,7
-2,33,50,14,0,-25,-10,27,7
2,26,57,21,-4,-20,-9,0,7
-64,-99,-110,-35,19,15,-113,-83,7
31,43,17,32,-4,8,43,66,7
-17,-4,-22,-19,-15,-21,-45,-51,7
11,0,26,23,13,23,49,14,7
7,13,13,-12,0,-9,-12,12,7
25,-26,-33,12,13,-7,18,23,7
-19,-3,-30,-7,-3,13,3,-52,7
-5,37,11,-20,-17,-17,9,9,7
24,22,-47,-14,-10,18,13,20,7
-26,-48,-4,6,13,2,-36,-4,7
24,50,92,-13,-13,3,44,16,7
9,-8,1,28,15,12,-15,-24,7
-5,34,-10,20,14,-2,22,10,7
20,5,-5,-44,-24,5,25,12,7
0,-29,21,20,5,-10,-42,34,7
-9,24,42,20,-1,-7,-42,-45,7
18,11,-51,-11,-5,-1,8,12,7
-3,-13,39,22,16,-12,-2,-5,7
2,18,-64,-25,-4,-11,-36,-13,7
-14,12,83,29,-9,7,5,-27,7
-18,-73,-41,14,-2,-11,24,16,7
-3,40,-16,-23,-1,16,-7,7,7
19,3,8,-27,-16,7,65,18,7
-6,-3,-32,-27,-5,-25,-68,-6,7
7,-22,-11,5,2,0,37,33,7
-43,-31,-13,5,4,-15,-63,-44,7
57,28,95,37,-4,9,48,16,7
-31,-10,-4,7,17,20,17,-8,7
-10,-11,-23,-31,-23,-8,-17,-5,7
15,23,-14,-20,-16,-20,-21,-4,7
-15,-34,-40,7,16,11,-33,-25,7
38,-4,39,27,11,-1,36,22,7
-44,-17,-7,-13,-12,16,86,15,7
5,27,42,7,-1,-23,-118,-70,7
-17,-41,-110,10,17,9,9,-1,7
0,5,26,-23,-11,-11,-6,17,7
23,10,49,29,13,20,49,27,7
-39,-42,-77,-37,-15,-12,-22,-9,7
21,62,65,21,14,16,30,20,7
-1,-5,-14,-4,-1,-4,-25,-6,7
19,33,-10,-4,-1,-4,-15,-10,7
10,-13,-26,-2,-3,5,28,36,7
-15,-10,73,17,0,-8,-16,-33,7
11,-13,-41,-33,-5,-1,-20,9,7
1,20,28,22,14,8,8,4,7
16,-6,-27,-15,-10,-5,-22,24,7
-14,-27,28,6,12,13,58,1,7
9,46,-9,29,0,-22,-34,2,7
2,1,73,-22,-18,-7,3,-56,7
-24,-8,-28,13,1,7,-4,34,7
0,1,-46,2,12,-8,-50,-34,7
-4,-10,28,-26,-21,14,39,12,7
6,9,33,42,10,-20,-41,13,7
2,-14,-47,-16,-12,-5,47,-37,7
-9,43,22,-11,-12,-2,-9,7,7
13,-19,-5,1,17,45,116,49,7
-11,0,-74,-30,-1,-61,-118,-46,7
-8,-5,55,38,-13,0,39,24,7
-11,2,-102,-45,-6,13,25,13,7
5,-10,-22,21,-1,-8,-36,-19,7
1,-55,-37,-38,-2,2,35,18,7
5,-4,-4,4,11,-1,17,5,7
6,24,77,13,3,-13,-8,-1,7
25,-28,-57,-6,3,15,0,25,7
-64,11,105,19,-4,5,16,-37,7
16,18,-58,-12,3,-10,-32,-25,7
6,-54,1,-1,3,19,14,22,7
11,-7,-31,26,9,-12,0,-20,7
7,26,-11,5,9,28,34,21,7
44,9,61,-1,5,-7,38,74,7
-44,-5,-19,-8,-9,-28,-84,-48,7
-28,-47,-74,-24,-5,-14,-41,-73,7
37,31,43,14,8,29,62,13,7
-23,-11,76,9,-3,-6,-58,-32,7
19,-35,-45,1,-1,-2,71,49,7
-14,1,86,-14,-13,-4,-7,17,7
-8,22,-41,13,18,9,-25,-21,7
-3,-41,-33,-54,-53,-10,-43,-12,7
-3,-6,40,27,16,3,32,-3,7
-13,42,-22,15,5,-2,-37,-20,7
-11,-10,34,11,4,7,24,28,7
17,18,2,18,19,-15,-28,-29,7
22,21,15,-10,-13,-5,25,11,7
-27,-20,-12,-13,-12,-9,-18,40,7
17,-8,-38,-9,-6,-19,-9,13,7
-2,38,35,3,10,13,-14,-19,7
-27,9,-3,1,-9,-14,-70,-47,7
17,5,-56,-29,4,15,74,8,7
13,8,19,14,0,-13,-27,9,7
-2,-18,-30,-2,1,7,55,13,7
5,18,32,-29,-2,4,-22,13,7
8,14,118,53,13,-4,-6,-16,7
-12,-15,-59,-32,-21,-4,33,-3,7
10,7,-41,10,13,14,1,-18,7
7,5,-35,-16,-5,-1,18,24,7
-15,-15,-42,-21,-4,-5,-9,-15,7
0,14,56,29,11,7,-39,-17,7
10,5,40,19,9,21,53,21,7
-3,-8,21,22,-1,-16,21,13,7
2,-1,-52,-21,-9,9,-48,-2,7
14,14,34,1,-1,1,29,17,7
-14,-17,-43,4,10,-4,-32,25,7
13,1,-17,-13,-7,7,33,-32,7
1,1,15,9,-7,-3,-45,-18,7
19,7,23,-16,2,17,52,26,7
3,9,-27,22,23,0,-46,-52,7
-7,15,-31,-37,-37,-14,7,48,7
-14,-81,-42,-7,3,8,-19,-25,7
-5,16,-7,9,-7,2,15,6,7
2,18,38,9,3,-2,26,0,7
7,13,13,-12,0,-9,-12,12,7
25,-26,-33,12,13,-7,18,23,7
-19,-3,-30,-7,-3,13,3,-52,7
-5,37,11,-20,-17,-17,9,9,7
24,22,-47,-14,-10,18,13,20,7
-26,-48,-4,6,13,2,-36,-4,7
24,50,92,-13,-13,3,44,16,7
9,-8,1,28,15,12,-15,-24,7
-5,34,-10,20,14,-2,22,10,7
20,5,-5,-44,-24,5,25,12,7
0,-29,21,20,5,-10,-42,34,7
-9,24,42,20,-1,-7,-42,-45,7
18,11,-51,-11,-5,-1,8,12,7
-3,-13,39,22,16,-12,-2,-5,7
2,18,-64,-25,-4,-11,-36,-13,7
-14,12,83,29,-9,7,5,-27,7
-18,-73,-41,14,-2,-11,24,16,7
-3,40,-16,-23,-1,16,-7,7,7
19,3,8,-27,-16,7,65,18,7
-6,-3,-32,-27,-5,-25,-68,-6,7
7,-22,-11,5,2,0,37,33,7
-43,-31,-13,5,4,-15,-63,-44,7
57,28,95,37,-4,9,48,16,7
-31,-10,-4,7,17,20,17,-8,7
-10,-11,-23,-31,-23,-8,-17,-5,7
15,23,-14,-20,-16,-20,-21,-4,7
-15,-34,-40,7,16,11,-33,-25,7
38,-4,39,27,11,-1,36,22,7
-44,-17,-7,-13,-12,16,86,15,7
5,27,42,7,-1,-23,-118,-70,7
-17,-41,-110,10,17,9,9,-1,7
0,5,26,-23,-11,-11,-6,17,7
23,10,49,29,13,20,49,27,7
-39,-42,-77,-37,-15,-12,-22,-9,7
21,62,65,21,14,16,30,20,7
-1,-5,-14,-4,-1,-4,-25,-6,7
19,33,-10,-4,-1,-4,-15,-10,7
10,-13,-26,-2,-3,5,28,36,7
-15,-10,73,17,0,-8,-16,-33,7
11,-13,-41,-33,-5,-1,-20,9,7
1,20,28,22,14,8,8,4,7
16,-6,-27,-15,-10,-5,-22,24,7
-14,-27,28,6,12,13,58,1,7
9,46,-9,29,0,-22,-34,2,7
2,1,73,-22,-18,-7,3,-56,7
-24,-8,-28,13,1,7,-4,34,7
0,1,-46,2,12,-8,-50,-34,7
-4,-10,28,-26,-21,14,39,12,7
6,9,33,42,10,-20,-41,13,7
2,-14,-47,-16,-12,-5,47,-37,7
-9,43,22,-11,-12,-2,-9,7,7
13,-19,-5,1,17,45,116,49,7
-11,0,-74,-30,-1,-61,-118,-46,7
-8,-5,55,38,-13,0,39,24,7
-11,2,-102,-45,-6,13,25,13,7
5,-10,-22,21,-1,-8,-36,-19,7
1,-55,-37,-38,-2,2,35,18,7
5,-4,-4,4,11,-1,17,5,7
6,24,77,13,3,-13,-8,-1,7
25,-28,-57,-6,3,15,0,25,7
-64,11,105,19,-4,5,16,-37,7
16,18,-58,-12,3,-10,-32,-25,7
6,-54,1,-1,3,19,14,22,7
11,-7,-31,26,9,-12,0,-20,7
7,26,-11,5,9,28,34,21,7
44,9,61,-1,5,-7,38,74,7
-44,-5,-19,-8,-9,-28,-84,-48,7
-28,-47,-74,-24,-5,-14,-41,-73,7
37,31,43,14,8,29,62,13,7
-23,-11,76,9,-3,-6,-58,-32,7
19,-35,-45,1,-1,-2,71,49,7
-14,1,86,-14,-13,-4,-7,17,7
-8,22,-41,13,18,9,-25,-21,7
-3,-41,-33,-54,-53,-10,-43,-12,7
-3,-6,40,27,16,3,32,-3,7
-13,42,-22,15,5,-2,-37,-20,7
-11,-10,34,11,4,7,24,28,7
17,18,2,18,19,-15,-28,-29,7
22,21,15,-10,-13,-5,25,11,7
-27,-20,-12,-13,-12,-9,-18,40,7
17,-8,-38,-9,-6,-19,-9,13,7
-2,38,35,3,10,13,-14,-19,7
-27,9,-3,1,-9,-14,-70,-47,7
17,5,-56,-29,4,15,74,8,7
13,8,19,14,0,-13,-27,9,7
-2,-18,-30,-2,1,7,55,13,7
5,18,32,-29,-2,4,-22,13,7
8,14,118,53,13,-4,-6,-16,7
-12,-15,-59,-32,-21,-4,33,-3,7
10,7,-41,10,13,14,1,-18,7
7,5,-35,-16,-5,-1,18,24,7
-15,-15,-42,-21,-4,-5,-9,-15,7
0,14,56,29,11,7,-39,-17,7
10,5,40,19,9,21,53,21,7
-3,-8,21,22,-1,-16,21,13,7
2,-1,-52,-21,-9,9,-48,-2,7
14,14,34,1,-1,1,29,17,7
-14,-17,-43,4,10,-4,-32,25,7
13,1,-17,-13,-7,7,33,-32,7
1,1,15,9,-7,-3,-45,-18,7
19,7,23,-16,2,17,52,26,7
3,9,-27,22,23,0,-46,-52,7
-7,15,-31,-37,-37,-14,7,48,7
-14,-81,-42,-7,3,8,-19,-25,7
-5,16,-7,9,-7,2,15,6,7
2,18,38,9,3,-2,26,0,7
14,0,-58,-17,7,0,-7,11,7
-12,18,72,32,6,-12,12,6,7
-6,-9,-51,-21,-14,6,-35,-1,7
-6,-26,-37,-36,-11,0,-2,-45,7
11,26,53,19,-4,-20,-44,-12,7
-35,-21,7,-8,-6,-3,10,-10,7
-4,-5,-14,9,11,10,66,22,7
6,25,14,14,-12,9,11,19,7
-34,-51,-62,-36,0,-9,-34,-15,7
38,26,66,30,4,-16,53,3,7
-52,-8,-43,-44,-23,2,-21,-39,7
27,17,94,40,18,26,56,51,7
1,-5,-20,6,2,-8,-1,14,7
12,40,17,-8,-3,8,-11,10,7
-5,24,-2,7,12,0,-1,-24,7
-14,-34,-16,-16,-6,3,20,21,7
-2,-4,40,12,12,29,49,-6,7
12,21,0,15,4,-13,-27,0,7
20,-12,-33,-10,-9,-5,0,32,7
-11,10,14,8,-8,-19,-71,-29,7
-4,13,55,13,10,3,24,15,7
-5,2,-54,-17,-8,18,5,-17,7
57,28,95,37,-4,9,48,16,7
-31,-10,-4,7,17,20,17,-8,7
-10,-11,-23,-31,-23,-8,-17,-5,7
15,23,-14,-20,-16,-20,-21,-4,7
-15,-34,-40,7,16,11,-33,-25,7
38,-4,39,27,11,-1,36,22,7
-44,-17,-7,-13,-12,16,86,15,7
5,27,42,7,-1,-23,-118,-70,7
-17,-41,-110,10,17,9,9,-1,7
0,5,26,-23,-11,-11,-6,17,7
23,10,49,29,13,20,49,27,7
-39,-42,-77,-37,-15,-12,-22,-9,7
21,62,65,21,14,16,30,20,7
-1,-5,-14,-4,-1,-4,-25,-6,7
19,33,-10,-4,-1,-4,-15,-10,7
10,-13,-26,-2,-3,5,28,36,7
-15,-10,73,17,0,-8,-16,-33,7
11,-13,-41,-33,-5,-1,-20,9,7
1,20,28,22,14,8,8,4,7
16,-6,-27,-15,-10,-5,-22,24,7
-14,-27,28,6,12,13,58,1,7
9,46,-9,29,0,-22,-34,2,7
2,1,73,-22,-18,-7,3,-56,7
-24,-8,-28,13,1,7,-4,34,7
0,1,-46,2,12,-8,-50,-34,7
-4,-10,28,-26,-21,14,39,12,7
6,9,33,42,10,-20,-41,13,7
2,-14,-47,-16,-12,-5,47,-37,7
-9,43,22,-11,-12,-2,-9,7,7
13,-19,-5,1,17,45,116,49,7
-11,0,-74,-30,-1,-61,-118,-46,7
-8,-5,55,38,-13,0,39,24,7
-11,2,-102,-45,-6,13,25,13,7
5,-10,-22,21,-1,-8,-36,-19,7
1,-55,-37,-38,-2,2,35,18,7
5,-4,-4,4,11,-1,17,5,7
6,24,77,13,3,-13,-8,-1,7
25,-28,-57,-6,3,15,0,25,7
-64,11,105,19,-4,5,16,-37,7
16,18,-58,-12,3,-10,-32,-25,7
6,-54,1,-1,3,19,14,22,7
11,-7,-31,26,9,-12,0,-20,7
7,26,-11,5,9,28,34,21,7
44,9,61,-1,5,-7,38,74,7
-44,-5,-19,-8,-9,-28,-84,-48,7
-28,-47,-74,-24,-5,-14,-41,-73,7
37,31,43,14,8,29,62,13,7
-23,-11,76,9,-3,-6,-58,-32,7
19,-35,-45,1,-1,-2,71,49,7
-14,1,86,-14,-13,-4,-7,17,7
-8,22,-41,13,18,9,-25,-21,7
-3,-41,-33,-54,-53,-10,-43,-12,7
-3,-6,40,27,16,3,32,-3,7
-13,42,-22,15,5,-2,-37,-20,7
-11,-10,34,11,4,7,24,28,7
17,18,2,18,19,-15,-28,-29,7
22,21,15,-10,-13,-5,25,11,7
-27,-20,-12,-13,-12,-9,-18,40,7
17,-8,-38,-9,-6,-19,-9,13,7
-2,38,35,3,10,13,-14,-19,7
-27,9,-3,1,-9,-14,-70,-47,7
17,5,-56,-29,4,15,74,8,7
13,8,19,14,0,-13,-27,9,7
-2,-18,-30,-2,1,7,55,13,7
5,18,32,-29,-2,4,-22,13,7
8,14,118,53,13,-4,-6,-16,7
-12,-15,-59,-32,-21,-4,33,-3,7
10,7,-41,10,13,14,1,-18,7
7,5,-35,-16,-5,-1,18,24,7
-15,-15,-42,-21,-4,-5,-9,-15,7
0,14,56,29,11,7,-39,-17,7
10,5,40,19,9,21,53,21,7
-3,-8,21,22,-1,-16,21,13,7
2,-1,-52,-21,-9,9,-48,-2,7
14,14,34,1,-1,1,29,17,7
-14,-17,-43,4,10,-4,-32,25,7
13,1,-17,-13,-7,7,33,-32,7
1,1,15,9,-7,-3,-45,-18,7
19,7,23,-16,2,17,52,26,7
3,9,-27,22,23,0,-46,-52,7
-7,15,-31,-37,-37,-14,7,48,7
-14,-81,-42,-7,3,8,-19,-25,7
-5,16,-7,9,-7,2,15,6,7
2,18,38,9,3,-2,26,0,7
14,0,-58,-17,7,0,-7,11,7
-12,18,72,32,6,-12,12,6,7
-6,-9,-51,-21,-14,6,-35,-1,7
-6,-26,-37,-36,-11,0,-2,-45,7
11,26,53,19,-4,-20,-44,-12,7
-35,-21,7,-8,-6,-3,10,-10,7
-4,-5,-14,9,11,10,66,22,7
6,25,14,14,-12,9,11,19,7
-34,-51,-62,-36,0,-9,-34,-15,7
38,26,66,30,4,-16,53,3,7
-52,-8,-43,-44,-23,2,-21,-39,7
27,17,94,40,18,26,56,51,7
1,-5,-20,6,2,-8,-1,14,7
12,40,17,-8,-3,8,-11,10,7
-5,24,-2,7,12,0,-1,-24,7
-14,-34,-16,-16,-6,3,20,21,7
-2,-4,40,12,12,29,49,-6,7
12,21,0,15,4,-13,-27,0,7
20,-12,-33,-10,-9,-5,0,32,7
-11,10,14,8,-8,-19,-71,-29,7
-4,13,55,13,10,3,24,15,7
-5,2,-54,-17,-8,18,5,-17,7
-25,-47,-63,-35,-4,-22,-12,-27,7
13,-2,-14,-17,-11,12,31,36,7
20,3,61,51,22,5,0,12,7
-26,7,-41,-31,-20,-1,-9,15,7
12,-16,-20,20,7,4,-33,1,7
-10,23,89,16,9,-4,58,6,7
-5,-22,22,14,12,23,13,-4,7
16,72,-15,-5,-12,-16,-71,-36,7
2,-46,-12,-17,-13,-11,-20,-12,7
-28,13,-2,11,4,0,24,-5,7
11,8,-44,-29,-3,11,-36,-14,7
12,-31,-11,3,3,6,35,4,7
4,12,79,16,2,-30,-55,-15,7
-12,1,10,6,-1,-3,-33,-14,7
-19,-24,40,-4,-22,3,20,8,7
9,20,-50,-5,7,2,-13,-13,7
-6,-27,26,14,18,16,33,40,7
20,21,38,23,4,-12,-43,-35,7
-45,-8,-66,-82,-15,0,7,8,7
42,-10,-14,33,25,26,48,-6,7
-13,14,79,19,-7,-7,-18,26,7
14,8,-13,18,2,-15,-42,-13,7
-14,-27,28,6,12,13,58,1,7
9,46,-9,29,0,-22,-34,2,7
2,1,73,-22,-18,-7,3,-56,7
-24,-8,-28,13,1,7,-4,34,7
0,1,-46,2,12,-8,-50,-34,7
-4,-10,28,-26,-21,14,39,12,7
6,9,33,42,10,-20,-41,13,7
2,-14,-47,-16,-12,-5,47,-37,7
-9,43,22,-11,-12,-2,-9,7,7
13,-19,-5,1,17,45,116,49,7
-11,0,-74,-30,-1,-61,-118,-46,7
-8,-5,55,38,-13,0,39,24,7
-11,2,-102,-45,-6,13,25,13,7
5,-10,-22,21,-1,-8,-36,-19,7
1,-55,-37,-38,-2,2,35,18,7
5,-4,-4,4,11,-1,17,5,7
6,24,77,13,3,-13,-8,-1,7
25,-28,-57,-6,3,15,0,25,7
-64,11,105,19,-4,5,16,-37,7
16,18,-58,-12,3,-10,-32,-25,7
6,-54,1,-1,3,19,14,22,7
11,-7,-31,26,9,-12,0,-20,7
7,26,-11,5,9,28,34,21,7
44,9,61,-1,5,-7,38,74,7
-44,-5,-19,-8,-9,-28,-84,-48,7
-28,-47,-74,-24,-5,-14,-41,-73,7
37,31,43,14,8,29,62,13,7
-23,-11,76,9,-3,-6,-58,-32,7
19,-35,-45,1,-1,-2,71,49,7
-14,1,86,-14,-13,-4,-7,17,7
-8,22,-41,13,18,9,-25,-21,7
-3,-41,-33,-54,-53,-10,-43,-12,7
-3,-6,40,27,16,3,32,-3,7
-13,42,-22,15,5,-2,-37,-20,7
-11,-10,34,11,4,7,24,28,7
17,18,2,18,19,-15,-28,-29,7
22,21,15,-10,-13,-5,25,11,7
-27,-20,-12,-13,-12,-9,-18,40,7
17,-8,-38,-9,-6,-19,-9,13,7
-2,38,35,3,10,13,-14,-19,7
-27,9,-3,1,-9,-14,-70,-47,7
17,5,-56,-29,4,15,74,8,7
13,8,19,14,0,-13,-27,9,7
-2,-18,-30,-2,1,7,55,13,7
5,18,32,-29,-2,4,-22,13,7
8,14,118,53,13,-4,-6,-16,7
-12,-15,-59,-32,-21,-4,33,-3,7
10,7,-41,10,13,14,1,-18,7
7,5,-35,-16,-5,-1,18,24,7
-15,-15,-42,-21,-4,-5,-9,-15,7
0,14,56,29,11,7,-39,-17,7
10,5,40,19,9,21,53,21,7
-3,-8,21,22,-1,-16,21,13,7
2,-1,-52,-21,-9,9,-48,-2,7
14,14,34,1,-1,1,29,17,7
-14,-17,-43,4,10,-4,-32,25,7
13,1,-17,-13,-7,7,33,-32,7
1,1,15,9,-7,-3,-45,-18,7
19,7,23,-16,2,17,52,26,7
3,9,-27,22,23,0,-46,-52,7
-7,15,-31,-37,-37,-14,7,48,7
-14,-81,-42,-7,3,8,-19,-25,7
-5,16,-7,9,-7,2,15,6,7
2,18,38,9,3,-2,26,0,7
14,0,-58,-17,7,0,-7,11,7
-12,18,72,32,6,-12,12,6,7
-6,-9,-51,-21,-14,6,-35,-1,7
-6,-26,-37,-36,-11,0,-2,-45,7
11,26,53,19,-4,-20,-44,-12,7
-35,-21,7,-8,-6,-3,10,-10,7
-4,-5,-14,9,11,10,66,22,7
6,25,14,14,-12,9,11,19,7
-34,-51,-62,-36,0,-9,-34,-15,7
38,26,66,30,4,-16,53,3,7
-52,-8,-43,-44,-23,2,-21,-39,7
27,17,94,40,18,26,56,51,7
1,-5,-20,6,2,-8,-1,14,7
12,40,17,-8,-3,8,-11,10,7
-5,24,-2,7,12,0,-1,-24,7
-14,-34,-16,-16,-6,3,20,21,7
-2,-4,40,12,12,29,49,-6,7
12,21,0,15,4,-13,-27,0,7
20,-12,-33,-10,-9,-5,0,32,7
-11,10,14,8,-8,-19,-71,-29,7
-4,13,55,13,10,3,24,15,7
-5,2,-54,-17,-8,18,5,-17,7
-25,-47,-63,-35,-4,-22,-12,-27,7
13,-2,-14,-17,-11,12,31,36,7
20,3,61,51,22,5,0,12,7
-26,7,-41,-31,-20,-1,-9,15,7
12,-16,-20,20,7,4,-33,1,7
-10,23,89,16,9,-4,58,6,7
-5,-22,22,14,12,23,13,-4,7
16,72,-15,-5,-12,-16,-71,-36,7
2,-46,-12,-17,-13,-11,-20,-12,7
-28,13,-2,11,4,0,24,-5,7
11,8,-44,-29,-3,11,-36,-14,7
12,-31,-11,3,3,6,35,4,7
4,12,79,16,2,-30,-55,-15,7
-12,1,10,6,-1,-3,-33,-14,7
-19,-24,40,-4,-22,3,20,8,7
9,20,-50,-5,7,2,-13,-13,7
-6,-27,26,14,18,16,33,40,7
20,21,38,23,4,-12,-43,-35,7
-45,-8,-66,-82,-15,0,7,8,7
42,-10,-14,33,25,26,48,-6,7
-13,14,79,19,-7,-7,-18,26,7
14,8,-13,18,2,-15,-42,-13,7
-30,-27,-23,-21,-16,-17,-23,3,7
-34,12,11,27,16,9,43,47,7
17,-36,-123,-40,-1,14,-16,-50,7
6,-18,-14,1,-12,-14,1,3,7
-21,49,14,1,0,-3,-9,-29,7
-4,-45,-10,-11,-3,12,45,30,7
50,67,16,29,6,2,-7,43,7
-16,-85,-55,-67,-21,3,7,9,7
-45,7,-70,2,14,-10,-8,-61,7
14,-10,-5,21,-1,-10,-46,9,7
0,28,-17,11,3,-11,0,-20,7
24,-24,-62,-49,-7,3,26,16,7
27,1,18,11,-8,-1,6,17,7
16,-1,30,9,15,20,32,43,7
-17,10,60,-11,-16,-19,-30,-22,7
-28,22,-32,30,12,4,18,17,7
28,-26,-38,10,0,-24,-48,-26,7
-33,-20,-53,-41,-8,0,-3,-62,7
-13,17,85,8,-3,-12,5,1,7
7,45,-16,3,1,-2,3,14,7
6,-54,1,-1,3,19,14,22,7
11,-7,-31,26,9,-12,0,-20,7
7,26,-11,5,9,28,34,21,7
44,9,61,-1,5,-7,38,74,7
-44,-5,-19,-8,-9,-28,-84,-48,7
-28,-47,-74,-24,-5,-14,-41,-73,7
37,31,43,14,8,29,62,13,7
-23,-11,76,9,-3,-6,-58,-32,7
19,-35,-45,1,-1,-2,71,49,7
-14,1,86,-14,-13,-4,-7,17,7
-8,22,-41,13,18,9,-25,-21,7
-3,-41,-33,-54,-53,-10,-43,-12,7
-3,-6,40,27,16,3,32,-3,7
-13,42,-22,15,5,-2,-37,-20,7
-11,-10,34,11,4,7,24,28,7
17,18,2,18,19,-15,-28,-29,7
22,21,15,-10,-13,-5,25,11,7
-27,-20,-12,-13,-12,-9,-18,40,7
17,-8,-38,-9,-6,-19,-9,13,7
-2,38,35,3,10,13,-14,-19,7
-27,9,-3,1,-9,-14,-70,-47,7
17,5,-56,-29,4,15,74,8,7
13,8,19,14,0,-13,-27,9,7
-2,-18,-30,-2,1,7,55,13,7
5,18,32,-29,-2,4,-22,13,7
8,14,118,53,13,-4,-6,-16,7
-12,-15,-59,-32,-21,-4,33,-3,7
10,7,-41,10,13,14,1,-18,7
7,5,-35,-16,-5,-1,18,24,7
-15,-15,-42,-21,-4,-5,-9,-15,7
0,14,56,29,11,7,-39,-17,7
10,5,40,19,9,21,53,21,7
-3,-8,21,22,-1,-16,21,13,7
2,-1,-52,-21,-9,9,-48,-2,7
14,14,34,1,-1,1,29,17,7
-14,-17,-43,4,10,-4,-32,25,7
13,1,-17,-13,-7,7,33,-32,7
1,1,15,9,-7,-3,-45,-18,7
19,7,23,-16,2,17,52,26,7
3,9,-27,22,23,0,-46,-52,7
-7,15,-31,-37,-37,-14,7,48,7
-14,-81,-42,-7,3,8,-19,-25,7
-5,16,-7,9,-7,2,15,6,7
2,18,38,9,3,-2,26,0,7
14,0,-58,-17,7,0,-7,11,7
-12,18,72,32,6,-12,12,6,7
-6,-9,-51,-21,-14,6,-35,-1,7
-6,-26,-37,-36,-11,0,-2,-45,7
11,26,53,19,-4,-20,-44,-12,7
-35,-21,7,-8,-6,-3,10,-10,7
-4,-5,-14,9,11,10,66,22,7
6,25,14,14,-12,9,11,19,7
-34,-51,-62,-36,0,-9,-34,-15,7
38,26,66,30,4,-16,53,3,7
-52,-8,-43,-44,-23,2,-21,-39,7
27,17,94,40,18,26,56,51,7
1,-5,-20,6,2,-8,-1,14,7
12,40,17,-8,-3,8,-11,10,7
-5,24,-2,7,12,0,-1,-24,7
-14,-34,-16,-16,-6,3,20,21,7
-2,-4,40,12,12,29,49,-6,7
12,21,0,15,4,-13,-27,0,7
20,-12,-33,-10,-9,-5,0,32,7
-11,10,14,8,-8,-19,-71,-29,7
-4,13,55,13,10,3,24,15,7
-5,2,-54,-17,-8,18,5,-17,7
-25,-47,-63,-35,-4,-22,-12,-27,7
13,-2,-14,-17,-11,12,31,36,7
20,3,61,51,22,5,0,12,7
-26,7,-41,-31,-20,-1,-9,15,7
12,-16,-20,20,7,4,-33,1,7
-10,23,89,16,9,-4,58,6,7
-5,-22,22,14,12,23,13,-4,7
16,72,-15,-5,-12,-16,-71,-36,7
2,-46,-12,-17,-13,-11,-20,-12,7
-28,13,-2,11,4,0,24,-5,7
11,8,-44,-29,-3,11,-36,-14,7
12,-31,-11,3,3,6,35,4,7
4,12,79,16,2,-30,-55,-15,7
-12,1,10,6,-1,-3,-33,-14,7
-19,-24,40,-4,-22,3,20,8,7
9,20,-50,-5,7,2,-13,-13,7
-6,-27,26,14,18,16,33,40,7
20,21,38,23,4,-12,-43,-35,7
-45,-8,-66,-82,-15,0,7,8,7
42,-10,-14,33,25,26,48,-6,7
-13,14,79,19,-7,-7,-18,26,7
14,8,-13,18,2,-15,-42,-13,7
-30,-27,-23,-21,-16,-17,-23,3,7
-34,12,11,27,16,9,43,47,7
17,-36,-123,-40,-1,14,-16,-50,7
6,-18,-14,1,-12,-14,1,3,7
-21,49,14,1,0,-3,-9,-29,7
-4,-45,-10,-11,-3,12,45,30,7
50,67,16,29,6,2,-7,43,7
-16,-85,-55,-67,-21,3,7,9,7
-45,7,-70,2,14,-10,-8,-61,7
14,-10,-5,21,-1,-10,-46,9,7
0,28,-17,11,3,-11,0,-20,7
24,-24,-62,-49,-7,3,26,16,7
27,1,18,11,-8,-1,6,17,7
16,-1,30,9,15,20,32,43,7
-17,10,60,-11,-16,-19,-30,-22,7
-28,22,-32,30,12,4,18,17,7
28,-26,-38,10,0,-24,-48,-26,7
-33,-20,-53,-41,-8,0,-3,-62,7
-13,17,85,8,-3,-12,5,1,7
7,45,-16,3,1,-2,3,14,7
16,8,105,36,20,12,5,6,7
17,-29,-49,-53,-37,-13,-4,4,7
-21,-4,-7,-15,-3,-8,-10,-20,7
-12,-8,-29,-5,0,3,9,-11,7
37,57,102,90,30,14,15,22,7
-14,-22,-29,-14,-8,-28,-43,-11,7
-18,-80,-128,-37,-8,18,36,11,7
15,73,61,8,18,-2,-9,-1,7
42,-21,-52,-17,-17,8,35,22,7
-7,24,46,-1,-1,0,23,29,7
-43,-28,19,29,0,-2,-10,-53,7
34,-41,-25,-10,4,-15,-23,-34,7
1,-39,-22,14,14,3,0,20,7
3,58,43,-27,-4,-9,-1,0,7
15,11,-31,4,-2,22,36,1,7
-16,32,-10,3,2,16,13,-1,7
4,-7,67,29,2,-8,-13,13,7
-11,-49,-72,-25,-13,-9,-13,-6,7
30,50,96,28,23,14,13,23,7
-20,-19,-46,-60,-62,-18,-8,2,7
-27,9,-3,1,-9,-14,-70,-47,7
17,5,-56,-29,4,15,74,8,7
13,8,19,14,0,-13,-27,9,7
-2,-18,-30,-2,1,7,55,13,7
5,18,32,-29,-2,4,-22,13,7
8,14,118,53,13,-4,-6,-16,7
-12,-15,-59,-32,-21,-4,33,-3,7
10,7,-41,10,13,14,1,-18,7
7,5,-35,-16,-5,-1,18,24,7
-15,-15,-42,-21,-4,-5,-9,-15,7
0,14,56,29,11,7,-39,-17,7
10,5,40,19,9,21,53,21,7
-3,-8,21,22,-1,-16,21,13,7
2,-1,-52,-21,-9,9,-48,-2,7
14,14,34,1,-1,1,29,17,7
-14,-17,-43,4,10,-4,-32,25,7
13,1,-17,-13,-7,7,33,-32,7
1,1,15,9,-7,-3,-45,-18,7
19,7,23,-16,2,17,52,26,7
3,9,-27,22,23,0,-46,-52,7
