-20,-14,-6,6,-8,-10,-22,6,2
3,-6,-7,-26,-5,-8,-38,-1,2
6,-8,-9,-29,-14,-9,72,-2,2
-18,3,3,-106,34,8,-40,-2,2
-45,-12,-7,-31,-20,-33,84,7,2
-4,-19,-18,57,-24,-11,-68,0,2
35,17,19,-22,28,21,-25,-4,2
-17,-11,-11,19,-38,-19,-69,-14,2
28,6,12,-1,14,15,42,1,2
24,15,0,15,12,-13,-68,-6,2
1,1,2,41,-25,-21,-18,-2,2
14,5,-10,-7,-1,-4,-23,-4,2
20,-13,2,-7,20,22,52,-6,2
-12,8,12,0,14,18,66,3,2
-52,-30,-31,44,-26,-36,19,-7,2
-2,-7,3,19,-17,-16,15,-3,2
26,14,-7,34,3,18,0,3,2
-2,-18,-11,0,-14,3,123,-3,2
14,15,18,-23,30,18,70,1,2
-19,-3,0,10,-3,-4,-31,6,2
-12,-17,-18,26,-24,-3,-103,-5,2
-6,1,-3,-40,-6,2,66,7,2
17,-6,1,-1,13,15,55,6,2
17,-2,2,-31,17,-4,18,-1,2
-22,20,11,51,-25,-34,-60,8,2
12,-7,2,7,-13,-3,-91,-7,2
14,13,2,-8,11,16,-68,-2,2
11,14,19,-24,8,16,127,-2,2
-30,-39,-17,-11,9,-16,-57,-15,2
-5,6,-8,36,-25,-6,123,7,2
14,7,7,-51,27,30,-13,-12,2
-30,-5,7,51,-31,-17,65,3,2
1,13,-19,-55,1,3,-22,9,2
0,-9,-1,6,12,8,-89,3,2
6,-14,0,2,3,7,-11,-2,2
-40,4,-10,-39,4,-20,-43,-5,2
-18,-25,-6,31,-20,-3,123,-8,2
-18,-17,-12,2,-10,-30,-67,-8,2
3,10,5,-12,7,11,68,4,2
1,5,2,61,-20,-41,-89,-5,2
-36,-10,-1,25,-15,-9,56,-4,2
-16,8,0,-28,16,-1,-87,-7,2
-1,12,18,22,-5,-11,-120,-3,2
-20,-8,-11,-12,6,27,75,1,2
3,-11,-15,4,-13,-9,76,7,2
8,13,11,-7,15,9,-13,-1,2
-52,-48,8,-15,11,7,75,-12,2
26,31,3,-3,6,30,10,0,2
-18,-9,0,70,-39,-22,41,14,2
-8,29,-2,-53,6,19,-3,5,2
24,47,30,-20,22,32,97,4,2
18,-61,-39,-22,28,9,-103,11,2
-5,4,-4,22,-20,1,64,-12,2
8,-10,-9,-11,-6,1,56,-1,2
5,4,10,25,-16,-21,-45,-2,2
11,6,9,-9,15,7,-16,10,2
26,25,11,-19,23,4,-124,3,2
-12,-18,-9,-8,-8,3,100,7,2
3,7,-11,-49,-4,-34,-68,9,2
2,-6,-4,7,-12,-2,-2,0,2
32,12,20,-51,32,22,-18,-2,2
-7,14,17,26,-10,14,1,-9,2
5,-17,-26,-25,-1,8,83,-1,2
6,-15,-10,4,-10,-38,-57,-7,2
-13,-12,8,-10,-5,9,68,-2,2
57,27,22,-14,34,29,-78,-2,2
11,48,10,35,0,27,-67,-5,2
-49,-28,-26,82,-33,-48,-38,9,2
35,42,38,-21,18,28,-3,-6,2
-11,-48,-29,11,-5,-17,44,-2,2
23,26,13,-33,3,-53,-64,21,2
-38,-59,-51,59,-41,-9,127,6,2
29,2,-7,-23,18,13,25,0,2
29,31,22,6,7,9,127,-2,2
-25,-12,-11,-21,11,17,-14,-8,2
13,23,20,-1,0,24,127,-4,2
-1,-19,-19,11,-15,-29,-83,2,2
-4,10,4,12,4,6,24,-1,2
25,-5,1,10,9,3,-43,0,2
-1,4,0,-13,-16,-18,-41,-4,2
-12,-3,-5,29,-5,6,15,-6,2
7,-6,-2,-31,-4,-4,66,-5,2
-2,-2,5,-15,13,-12,-55,-7,2
-52,0,-14,62,-26,-14,-19,2,2
24,1,5,-24,15,11,-74,2,2
-28,36,10,28,-24,-49,-80,-6,2
-34,-58,-47,10,-45,6,110,-6,2
61,51,37,-56,26,2,-4,-5,2
-24,-38,-14,-15,9,18,127,0,2
12,38,36,-26,23,12,8,-11,2
-41,-59,-28,92,-32,-14,-16,7,2
25,29,17,-50,28,42,42,-3,2
-10,8,2,-39,-3,-15,4,0,2
8,-26,-18,0,1,0,61,2,2
-14,-8,1,16,4,-11,19,-2,2
-25,4,16,38,-9,16,118,-12,2
-11,-4,-30,65,-33,-59,-79,-1,2
-11,-13,-26,-5,-5,10,64,10,2
17,1,-2,-16,6,5,5,-9,2
-4,-2,15,-55,23,7,127,8,2
-2,25,7,38,-14,-19,-96,-2,2
-34,-39,-15,13,-21,-17,-24,-4,2
22,23,10,-29,8,-1,3,3,2
57,40,27,-62,40,22,-100,-2,2
-26,-21,-11,11,-13,-18,-71,2,2
-7,-20,-12,14,-10,-9,-82,-4,2
7,-3,6,4,-2,-4,-71,-3,2
0,2,-72,-9,6,4,-56,-3,2
55,56,55,-17,32,28,-62,7,2
-44,-53,-22,34,-52,-22,94,5,2
23,16,4,-47,8,13,75,9,2
-13,-30,-2,6,-1,-4,65,-9,2
11,67,-7,1,5,14,76,-4,2
6,-24,30,-13,4,3,90,1,2
14,-1,10,-26,-3,-3,82,-10,2
-8,-3,19,-22,-11,-6,-117,-7,2
-47,-50,-38,-7,-10,19,127,-6,2
12,22,0,-26,12,10,-26,-1,2
-14,7,-19,5,-2,-1,17,-5,2
42,13,29,-33,41,27,99,-1,2
-61,-34,17,67,-44,-42,-58,-19,2
6,-14,-38,1,-2,10,-46,2,2
26,3,11,-19,25,20,-53,7,2
-39,-35,-8,39,-38,-31,85,13,2
28,22,-5,-11,5,1,-128,1,2
-10,25,22,-12,2,-3,21,3,2
-19,13,-16,11,-21,6,79,-8,2
40,18,34,-39,30,16,-39,-2,2
-38,-38,-33,56,-45,-57,-32,1,2
-2,-17,-21,-5,7,10,-30,-3,2
0,6,9,0,13,3,37,6,2
-12,4,18,40,-16,-21,-108,1,2
47,8,18,-60,41,33,-8,9,2
20,21,15,3,11,5,-124,-9,2
-3,-20,-9,17,-20,-8,27,-4,2
40,3,-15,-25,16,-9,-46,4,2
23,-16,-16,-20,-1,17,127,-1,2
-1,15,8,-22,1,-10,27,1,2
47,38,26,-23,27,25,67,-1,2
-48,-33,-28,83,-44,-7,110,-10,2
28,4,-7,-8,10,17,10,-6,2
5,3,11,-16,2,-5,34,0,2
-32,1,-7,23,-8,-5,-54,-4,2
8,-20,-3,-1,5,-6,-87,0,2
-2,14,-1,-25,-3,-8,17,12,2
-25,-1,-2,86,-24,-23,-42,-12,2
-16,1,-10,27,-8,-32,-113,5,2
0,16,5,-18,5,18,-58,-2,2
-7,-20,2,-3,-12,10,127,-3,2
19,-11,-3,-27,15,16,108,5,2
-21,-15,8,1,-7,-11,31,3,2
11,18,-38,-4,-8,-9,-28,2,2
-6,-19,20,-7,3,0,-57,-2,2
-42,-13,-18,23,-10,4,-8,-5,2
1,0,20,-22,-4,-9,92,-8,2
-32,-36,-32,-2,-22,-24,109,-3,2
38,43,27,-30,27,21,-3,-7,2
21,4,10,-24,8,10,-33,-1,2
-29,7,-4,7,-2,-2,-115,1,2
-11,-8,9,0,-7,12,15,-12,2
-16,-24,-20,-8,13,1,72,1,2
4,20,4,-7,-3,-2,27,-1,2
33,8,3,-18,12,10,-8,-2,2
33,44,21,-40,13,4,98,11,2
-25,-13,-11,11,-9,-18,-49,-1,2
11,5,5,-6,4,1,-62,-2,2
14,27,6,-8,10,9,-28,-10,2
6,29,14,-15,-3,-3,-33,8,2
-24,-47,-32,17,-7,-5,100,-8,2
29,36,20,0,6,-5,-71,8,2
-29,-28,-24,-8,-2,5,12,-4,2
-1,-16,-3,23,0,-4,-78,-2,2
14,14,44,-11,2,11,67,7,2
33,10,-5,-20,7,1,-72,4,2
-33,-40,-26,21,-17,-11,43,-4,2
9,13,8,-7,8,10,16,-4,2
9,-6,-25,45,-8,8,-54,-1,2
12,-6,11,-54,26,15,-1,7,2
-59,-24,-10,25,-29,-11,22,10,2
-37,5,-1,1,0,-1,87,12,2
8,7,-2,27,-7,-28,-128,-3,2
-25,-13,2,-20,-7,17,87,-7,2
48,32,18,-38,11,9,68,-1,2
-33,-44,-34,28,-9,-4,-22,-5,2
31,5,4,-15,21,29,75,-1,2
-76,6,-23,1,-23,-19,-4,0,2
-30,-23,-19,45,-46,-61,-112,1,2
33,4,13,-3,8,15,63,-1,2
39,16,14,-29,18,17,73,1,2
20,0,-3,-17,31,28,78,-9,2
-55,-25,-25,54,-46,-68,39,8,2
-24,-7,-9,4,-8,10,-69,2,2
10,17,17,6,3,7,-93,-4,2
10,-3,-8,50,-3,-11,11,-5,2
11,20,32,6,25,13,-43,8,2
45,13,36,-21,21,12,-16,4,2
-59,22,-27,29,-37,-49,-75,4,2
-12,-15,-21,-19,-1,34,75,0,2
28,-13,-15,23,-21,-18,-79,3,2
17,15,0,-2,9,-1,-4,0,2
60,26,38,-41,54,48,30,-1,2
-31,-20,-1,53,-27,-48,96,-6,2
-28,-1,-12,-18,-5,7,-24,-9,2
-3,-19,5,-16,-2,6,-43,0,2
-12,-4,-8,26,-14,-9,-51,-3,2
16,11,15,-34,32,16,14,5,2
24,17,7,-7,10,21,-44,-8,2
10,-11,-1,16,10,-4,72,-2,2
-14,-16,-17,14,-27,17,25,-10,2
-5,-3,4,-11,-16,-27,-113,3,2
43,21,25,-50,45,51,104,1,2
13,23,9,16,2,0,-83,12,2
-75,-26,-26,34,-35,-49,76,6,2
-4,-32,-14,16,-16,-25,-19,2,2
11,2,3,-35,24,27,118,-8,2
-17,8,14,-1,1,25,127,-17,2
-3,-21,-26,18,-17,-21,-38,-3,2
17,-10,15,3,-3,3,-23,-1,2
-10,-8,-19,-8,-4,-14,13,6,2
8,-8,-4,4,6,-2,2,-3,2
8,-38,-4,-28,15,8,60,0,2
9,99,42,-4,-2,-30,-77,-4,2
-6,-52,-10,13,7,26,-89,4,2
-47,-14,-16,39,-31,-44,-91,-9,2
17,0,-3,-15,1,39,118,11,2
40,14,8,-41,35,11,-56,-5,2
-15,-8,-10,92,-26,-16,91,-16,2
1,-6,-4,-36,2,-7,-47,-7,2
23,15,12,-29,17,2,59,-2,2
31,1,4,-12,20,40,127,-14,2
-11,8,6,-2,-16,-29,-24,-21,2
-12,-17,-15,-2,-13,2,122,-2,2
5,20,25,-2,10,5,-7,-14,2
13,-6,-1,-41,11,21,17,-2,2
-19,-18,-16,23,-6,11,27,-15,2
-1,2,-4,1,-27,-13,-65,11,2
-2,12,7,-32,6,-2,-5,12,2
-19,-19,-7,-4,-5,-1,-7,5,2
-7,7,0,-75,8,-29,3,38,2
22,21,3,59,-17,-36,-77,-8,2
25,3,8,13,11,21,-45,-1,2
-27,-5,-7,-21,-11,-2,118,6,2
48,4,12,20,12,11,46,10,2
-9,-3,10,-39,13,26,75,3,2
-13,1,-9,-3,-47,-33,-54,-5,2
6,-2,-3,8,33,15,93,-2,2
30,26,24,-29,14,15,-76,-1,2
-16,-28,-24,52,-50,-10,-58,-9,2
-3,-20,-5,14,22,1,-77,-6,2
7,30,21,-25,27,10,46,-3,2
4,-26,-14,9,-2,2,-75,-7,2
-1,-54,-33,-12,13,12,34,-7,2
12,83,55,11,-11,-2,-92,-12,2
11,-45,-46,6,-35,7,39,-4,2
27,29,10,5,6,13,44,-21,2
-46,-2,-2,-21,1,-27,71,-2,2
-11,-39,-23,-38,-1,8,104,0,2
14,1,14,-16,11,-14,-18,-6,2
-24,18,8,36,-11,-19,-55,2,2
100,36,26,-58,61,65,127,-15,2
-53,-34,-25,41,-33,-27,-87,-8,2
-47,-54,-36,77,-49,-30,-101,17,2
14,13,11,-56,17,26,65,0,2
33,34,36,-13,29,11,-44,-1,2
-53,-16,-29,60,-32,-41,104,13,2
-7,-14,-6,-1,-16,-12,-128,3,2
4,-1,1,9,5,3,-50,-2,2
44,64,34,-26,55,58,74,-10,2
-46,-55,-27,45,-27,-56,-87,-7,2
-5,-18,-13,6,-18,2,15,1,2
-7,31,16,5,2,0,56,7,2
5,25,2,-10,3,13,55,11,2
44,24,14,-48,19,16,79,11,2
0,6,3,-17,4,-3,-59,-16,2
-22,-62,-42,44,-30,-49,-121,-6,2
-42,19,6,-7,-23,-11,-40,15,2
51,19,21,-45,31,34,103,-1,2
34,11,9,-33,37,29,-2,-9,2
-18,-23,-28,53,-43,-27,20,-14,2
-49,-45,-31,60,-47,-48,-78,2,2
2,2,-10,-26,14,12,29,-16,2
34,40,45,-5,13,-1,54,4,2
5,44,25,-32,25,19,-47,11,2
-13,-33,-25,43,-28,-11,41,-1,2
25,21,1,-14,9,6,21,3,2
-14,-13,-7,-6,7,8,-1,-14,2
5,-17,-1,-29,-1,5,112,-2,2
38,-22,31,6,16,2,22,0,2
-7,21,-13,-2,6,14,-50,-3,2
-19,-11,-13,14,-21,-6,-1,-11,2
-17,2,3,3,9,3,-2,3,2
-2,-5,-20,-13,-2,9,54,-3,2
13,-14,19,-56,19,-20,-50,-2,2
-27,-5,-25,74,-33,-28,-112,-7,2
13,17,34,-19,17,32,117,12,2
18,17,27,8,5,24,71,-10,2
-37,-27,-41,-5,-4,9,114,0,2
-9,-14,-26,13,-17,-43,-5,13,2
-10,-5,-35,-20,-3,-22,-99,-9,2
-3,-7,-33,-22,-1,-15,-20,4,2
-10,-1,54,25,4,22,114,-16,2
-10,2,51,-3,-8,-9,-2,1,2
23,26,15,-37,5,21,11,-7,2
2,-9,-33,25,3,1,-115,-5,2
-2,-1,2,16,-15,-15,-8,5,2
-5,-4,-14,-49,17,5,72,-7,2
23,-2,21,-10,8,-5,9,-12,2
-17,4,-19,59,-13,-6,31,-15,2
22,16,7,-22,7,1,-28,2,2
-8,-9,0,31,-13,-2,104,-2,2
-29,-3,-8,-66,1,-8,19,9,2
0,-27,-1,12,3,3,-36,7,2
-42,-11,-4,-11,-13,-25,-118,9,2
16,53,9,-15,3,4,81,-11,2
-28,-29,-15,27,-18,-31,-79,-8,2
6,19,4,-25,0,6,97,12,2
51,8,10,-28,31,1,8,8,2
-29,-31,-38,5,-29,-14,-42,1,2
1,9,-9,11,-3,8,31,-2,2
-8,-10,3,-25,6,3,83,2,2
49,39,32,-18,30,25,80,-4,2
-55,-33,-30,76,-42,-60,-20,0,2
17,-6,-9,1,2,11,24,-4,2
-11,-11,11,-1,-16,-15,-38,8,2
54,52,30,-28,22,26,93,-3,2
-39,-11,-12,-1,-15,-10,91,18,2
-17,-23,-2,10,-8,3,43,11,2
-1,22,14,-12,0,-13,44,-8,2
-30,-32,-10,26,-9,5,84,-4,2
-10,-27,-9,-2,-15,-9,-45,8,2
21,-16,-6,2,15,16,14,9,2
-9,21,2,-32,8,2,-79,-9,2
-33,12,-13,19,-34,5,47,8,2
33,9,23,-29,30,21,-73,2,2
-33,-27,-20,33,-27,-24,104,-4,2
3,-12,0,-12,5,-3,-42,4,2
11,8,-6,20,-1,-7,-91,-9,2
-4,-6,-8,-8,-10,16,40,-8,2
21,27,6,-17,20,18,40,9,2
-1,-17,18,-8,9,-8,25,-9,2
-24,0,-15,84,-44,-30,54,9,2
47,3,11,-49,27,36,106,-8,2
30,12,24,-42,38,33,63,-2,2
-65,-27,-48,95,-74,-43,34,-1,2
7,-8,5,-70,12,23,27,0,2
25,6,6,-17,26,17,23,8,2
6,9,-2,11,-9,-11,-19,-8,2
38,21,21,-11,23,0,-13,-11,2
-32,-25,-5,14,-17,-2,-13,4,2
-6,7,-26,17,-10,-9,-18,3,2
-4,-4,2,0,1,13,-46,-11,2
-3,1,0,-11,-5,-7,-115,-2,2
42,18,7,-25,28,32,27,-3,2
-15,3,4,-6,-10,-5,52,-1,2
2,1,9,10,3,-12,-90,9,2
-19,-16,-10,13,-18,-17,-99,3,2
95,64,42,-79,66,48,-128,-13,2
-49,-78,-48,96,-52,-20,-100,-8,2
7,17,-15,-8,-5,1,38,-6,2
34,6,23,-44,37,37,122,8,2
-19,-17,-20,25,-14,-25,-8,13,2
32,24,13,-3,20,1,-56,-4,2
-12,3,1,1,-14,-6,64,1,2
-5,-10,-1,-11,-2,10,86,12,2
-1,3,-1,8,4,-13,-70,-16,2
-6,-16,3,5,0,-5,80,0,2
-57,-61,-7,26,-26,-10,9,-4,2
26,48,9,-36,11,14,118,-23,2
-54,-42,-40,26,-33,-24,-111,-2,2
3,10,1,-9,3,-6,-82,-6,2
17,7,13,-23,23,17,26,3,2
27,23,21,14,14,1,-10,8,2
-69,-58,-46,15,-40,-27,9,3,2
-37,-1,9,-10,10,14,28,2,2
35,32,1,1,12,7,21,11,2
-24,-12,-1,11,-25,-9,50,12,2
42,18,12,-7,5,-14,-43,4,2
45,26,15,-29,9,3,-36,-15,2
-21,-2,-10,-12,-8,-6,-31,-11,2
-22,-14,-6,20,-7,-15,-23,-9,2
13,-3,1,-1,4,5,3,-15,2
2,16,11,-13,7,7,11,-2,2
-7,-1,6,6,-9,-13,25,-7,2
-1,-4,-6,5,4,3,-49,-3,2
-2,-30,6,-1,-6,14,127,-11,2
-35,14,-16,-29,3,-21,-11,9,2
-12,-5,-25,42,-34,-30,11,2,2
15,-4,-3,-15,4,1,61,8,2
3,5,-6,-14,1,-10,9,-5,2
28,24,46,8,13,-2,1,5,2
-21,9,2,-1,-10,17,81,7,2
-14,4,-1,18,-14,-18,-47,-7,2
29,13,13,-1,13,7,-8,19,2
-79,-76,-44,71,-37,-37,50,25,2
26,20,-2,-15,5,5,42,-11,2
13,-5,-3,-6,12,28,64,4,2
-7,-5,-6,25,-10,-32,-100,-7,2
35,25,18,-18,16,36,93,1,2
-1,8,4,2,1,1,2,-3,2
-34,-42,-8,27,-19,-15,-82,0,2
-15,-10,-17,7,5,11,57,-2,2
22,10,16,-32,13,11,44,-3,2
-11,4,-1,-1,11,-6,-128,-29,2
-5,10,0,-3,-9,5,49,-5,2
-16,-6,3,13,-1,-5,-45,-9,2
14,7,3,7,-1,13,37,-9,2
20,-11,-13,-4,8,18,83,0,2
-66,-49,-27,-12,-13,-46,6,12,2
-4,26,13,24,-7,14,-34,-7,2
20,9,-2,-25,4,8,-15,7,2
1,6,24,-38,11,3,75,9,2
-9,12,14,48,-15,-22,-97,-8,2
6,9,-16,-13,-8,17,127,2,2
28,-1,-13,-30,11,13,75,9,2
9,11,28,-15,13,1,-72,28,2
-32,-9,-11,19,-3,8,41,-14,2
-17,-31,-6,3,-8,-12,-45,-4,2
16,-3,12,-9,10,0,-84,-21,2
27,18,-22,-44,31,19,-76,22,2
-10,23,-1,47,-25,18,109,-28,2
-14,-11,-4,-21,-3,-12,-73,-5,2
6,14,10,-20,0,8,108,-6,2
3,4,4,1,7,-7,82,7,2
38,1,-3,-8,5,5,-62,3,2
12,0,-10,-10,10,11,-4,4,2
2,13,8,-20,11,8,57,-15,2
-24,-25,-13,80,-46,-57,-14,-12,2
27,15,4,-57,20,23,64,7,2
2,-3,-10,3,0,0,127,-8,2
-7,9,17,-5,1,-12,-80,10,2
-1,0,-1,12,-1,7,7,-18,2
10,4,-1,-4,12,11,-10,-1,2
7,8,-6,-2,-10,-4,-20,11,2
2,10,4,-5,5,5,35,-8,2
-1,-23,-4,21,5,1,-73,-7,2
-76,-34,-25,46,-48,-73,-18,9,2
22,0,21,-17,15,24,94,-9,2
-5,-18,-22,-8,-8,-5,-17,-6,2
0,27,11,5,-9,5,67,5,2
42,18,-7,-32,25,9,-51,-3,2
-18,17,37,57,-9,-18,-82,12,2
-39,-27,-25,23,-30,-19,-23,2,2
-21,-35,-11,-3,-3,7,53,1,2
29,17,9,-23,11,22,52,14,2
-22,-10,-21,2,-10,-8,-28,-15,2
34,10,18,1,2,7,99,6,2
-33,-31,5,-11,11,4,-68,-9,2
35,22,5,-17,18,16,-58,-17,2
-14,-8,-15,-24,-6,16,52,-4,2
8,-1,-7,5,-9,-6,-40,4,2
-18,-3,-7,-1,-12,-3,63,-2,2
13,-10,11,-4,6,7,48,-4,2
-11,-1,6,-36,22,11,32,2,2
-27,-3,-7,8,-5,-12,-82,-15,2
10,1,1,-11,4,15,62,-3,2
1,11,10,7,-2,-10,-48,-3,2
14,13,15,7,-12,-10,95,5,2
-2,10,-4,11,4,-1,-85,-6,2
5,-6,-4,-18,4,7,-40,-3,2
-3,25,-4,16,-11,0,37,0,2
31,39,-6,-9,15,0,-37,-1,2
-21,-37,35,-4,-3,-9,-17,-5,2
26,25,21,-14,11,10,49,20,2
-24,-27,-28,33,-26,-34,-55,0,2
-37,-34,-11,-1,-9,-14,-93,-5,2
29,47,3,-33,17,16,116,15,2
-21,-22,-20,14,-4,-11,-91,1,2
14,16,19,-11,4,15,55,13,2
-29,-13,0,-18,5,-4,-21,-4,2
-5,-8,-9,4,1,6,68,7,2
-5,-11,-8,30,-17,-40,-100,-4,2
11,5,-2,-17,10,6,99,5,2
44,22,20,-22,24,10,-75,-9,2
-15,-17,-18,12,-21,-3,-44,-5,2
4,13,1,1,1,9,50,-11,2
-2,-13,-2,-22,-1,-2,-11,-7,2
9,1,4,13,0,-7,-48,0,2
7,1,8,-6,5,0,-7,-5,2
16,4,-4,1,6,-2,-40,-5,2
-17,-20,0,23,-7,10,-5,-11,2
0,0,-1,23,-15,-1,-32,-4,2
9,-4,-10,-6,11,5,42,7,2
-8,-22,-3,21,-12,-11,15,-1,2
16,43,29,-21,21,16,-51,2,2
-48,-9,-20,2,-28,-33,65,16,2
-2,-10,-19,21,-10,-10,-74,-2,2
-1,-6,14,-15,1,9,10,2,2
24,-3,5,5,7,5,15,-4,2
28,1,8,-31,27,33,80,-18,2
-56,-17,-18,6,-27,-32,-97,5,2
-33,-3,-1,11,-7,5,57,1,2
16,3,-5,-11,5,1,-46,-6,2
21,22,9,-19,7,0,-31,-3,2
11,13,11,-12,22,18,18,-12,2
45,32,18,-22,11,18,-19,-4,2
-66,-45,-29,-3,-35,-32,-83,2,2
5,-18,-1,9,-6,3,70,-2,2
6,5,-8,8,8,11,38,3,2
10,-13,1,2,5,7,45,5,2
17,13,23,-12,21,12,78,-4,2
-45,-38,-40,55,-51,-32,99,-13,2
9,-3,2,5,-3,-2,-86,-5,2
6,10,-1,-16,10,8,45,-3,2
12,-4,-36,-29,14,2,-6,-3,2
-3,-15,20,11,3,7,47,3,2
-1,21,37,17,-10,2,116,5,2
-30,-16,-29,9,-26,-37,-5,6,2
0,16,23,4,-8,0,2,-5,2
35,3,-34,-44,15,7,8,-13,2
-39,-4,0,15,-10,1,119,0,2
-24,-3,-4,39,-17,-25,-124,8,2
21,7,-1,0,15,10,-118,0,2
-14,-21,-6,21,-11,-2,-73,0,2
34,16,9,-48,22,12,98,2,2
0,16,12,-44,10,27,48,-8,2
-41,-40,-27,56,-38,-31,127,5,2
58,38,22,4,25,23,-98,-3,2
-53,-41,-36,77,-36,10,-8,-24,2
19,13,3,36,6,6,-91,-7,2
25,6,20,-26,15,9,-14,-5,2
-3,-12,-4,-9,-1,-7,-8,-3,2
2,13,-7,-38,6,-9,-3,1,2
0,-2,2,-8,-5,-10,9,-14,2
-6,-31,-12,-6,-9,2,-9,-2,2
-19,48,13,-40,-7,-14,22,2,2
-5,-10,1,-6,9,-8,-111,-10,2
-11,5,16,-14,-5,4,88,-6,2
4,1,9,-32,4,-1,-22,-3,2
-5,-11,-24,-42,1,-4,-67,1,2
14,-18,-5,33,8,4,-38,1,2
4,-2,1,-14,-7,-2,-41,-3,2
0,10,8,13,11,13,103,9,2
-13,-14,7,5,-8,-20,-99,-14,2
16,33,19,-2,3,-2,22,3,2
32,-15,13,10,13,10,30,16,2
-73,-9,-34,38,-30,-20,28,3,2
-10,-27,-6,81,-15,-14,112,1,2
13,10,-7,26,11,-2,29,3,2
22,0,-2,28,-4,2,36,-3,2
21,5,12,-30,17,15,-1,-14,2
7,0,6,-19,0,8,38,4,2
-7,-5,-6,-32,-9,-13,-69,2,2
-10,11,-2,-24,-2,-4,11,-3,2
6,-15,-32,-8,2,-1,-64,-3,2
-11,-20,9,2,0,2,41,1,2
24,37,21,-30,1,8,-15,5,2
-14,-18,-15,0,0,4,21,-3,2
20,-1,12,-9,9,-7,-128,7,2
5,18,4,-39,8,41,86,-7,2
-10,-31,-10,-62,-9,-5,73,0,2
1,28,-3,38,-2,-3,-57,-3,2
-1,-2,1,-2,1,16,91,-1,2
-5,-23,1,6,11,-6,18,12,2
-2,19,13,12,6,13,76,19,2
-37,10,7,12,-13,-18,-72,3,2
22,15,-1,3,-1,1,7,-8,2
9,7,7,12,12,11,43,3,2
-7,-21,-20,20,-14,-16,19,-11,2
3,-15,-8,-8,-1,-6,-21,11,2
2,7,10,-25,2,0,24,6,2
7,11,-2,-23,2,6,-81,-6,2
23,7,12,-23,20,3,-78,-5,2
-18,-16,-23,19,-23,-1,20,0,2
-3,-3,3,-1,-6,-5,74,-4,2
4,13,7,-11,11,5,8,-11,2
6,3,-20,10,2,-7,-74,-5,2
14,1,6,7,5,1,2,-6,2
-20,-64,4,15,-3,-1,-45,-18,2
-9,34,-9,4,-15,-9,66,9,2
9,-5,2,3,2,3,-36,-11,2
-1,-14,-29,-12,-2,-10,-47,-5,2
4,4,25,14,-2,0,-25,1,2
7,18,1,-5,-2,-4,-11,5,2
-10,-3,2,-3,10,16,12,-11,2
-8,1,1,-8,-4,-17,-37,-2,2
-2,4,-9,9,-11,2,76,4,2
14,-15,-1,-9,6,-5,-48,4,2
-33,-8,-8,-8,-11,0,108,20,2
0,0,-1,-7,4,7,-11,0,2
14,29,9,-8,7,-3,-62,-7,2
-23,-2,12,1,-19,-16,35,4,2
9,-37,-35,0,5,0,-32,-2,2
10,26,24,-8,12,19,98,13,2
-35,5,-17,25,-27,-36,-128,-16,2
3,-17,-6,-7,-1,0,47,7,2
-1,-10,8,12,-1,-7,-25,-14,2
-10,-28,-17,-2,-4,1,12,-8,2
26,27,-2,-14,15,21,77,6,2
-12,5,1,10,-3,-6,-39,-3,2
4,19,7,8,-3,1,-36,3,2
11,15,-3,-8,3,6,70,-13,2
1,-6,-7,-14,3,1,22,2,2
8,-20,-12,-17,5,12,72,-14,2
-16,-6,-3,13,-7,-21,-94,-2,2
8,17,20,14,15,14,89,7,2
-11,-11,-12,20,-26,-17,-99,0,2
8,8,13,-7,16,6,17,0,2
-9,1,12,-9,-18,1,-22,1,2
-6,-7,-12,-11,7,4,35,-1,2
11,0,17,-14,3,-2,12,-2,2
5,-7,-9,-6,2,0,-67,-1,2
5,15,-1,-1,2,-3,30,-2,2
-6,-30,2,4,-4,-6,-37,-4,2
1,15,2,5,-1,10,27,-2,2
-2,-2,-1,4,-9,-8,-13,-10,2
3,3,-5,-12,5,2,38,0,2
-5,-7,-12,10,-9,-10,-60,-7,2
7,2,24,-18,26,21,106,-15,2
-39,1,-37,28,-38,-30,7,0,2
26,29,17,5,5,10,-11,-4,2
-16,-24,-13,-4,-8,-13,0,-11,2
12,2,9,-7,9,13,80,-1,2
13,-4,7,-6,15,1,-119,-4,2
-23,-23,-13,1,-18,-10,78,1,2
-2,-2,-8,3,-12,-5,59,-1,2
6,-11,-12,-7,3,0,18,8,2
1,-8,2,3,2,1,12,-8,2
29,18,5,-12,15,5,12,-5,2
20,13,13,-1,13,3,-52,9,2
-22,0,-7,3,-2,-6,-4,0,2
-11,-9,-8,17,-22,-23,-78,-1,2
1,-2,4,0,2,4,25,-1,2
4,14,15,-9,0,0,33,0,2
14,-24,-31,3,-1,1,-34,-1,2
3,17,6,-16,13,17,72,2,2
-5,2,5,-2,1,-1,-18,-3,2
4,17,-1,7,-2,-10,-97,-3,2
-17,-37,-8,12,-11,-14,27,9,2
28,18,11,3,12,22,0,2,2
-3,-14,-12,-8,-3,-4,67,-1,2
-15,4,11,0,-12,-36,-81,13,2
-17,5,-7,4,-9,7,6,-6,2
0,-12,0,-18,8,11,78,-1,2
21,-5,17,8,4,-6,21,-1,2
14,16,-14,-4,-4,1,-14,-13,2
-13,0,1,-2,-15,-2,40,1,2
-3,-2,6,2,-3,-7,-17,-6,2
7,-2,-5,-21,10,15,27,1,2
2,10,3,-12,9,14,48,-11,2
18,3,12,-11,-14,-19,-26,3,2
-18,-24,-6,6,-4,9,22,6,2
-5,-1,-3,1,0,-5,-71,1,2
-2,-6,-3,7,0,1,-3,-7,2
11,29,1,6,3,-1,34,2,2
10,-5,17,3,5,-13,-90,0,2
-35,-30,-30,7,-10,-15,-104,-9,2
5,17,2,7,-7,2,76,14,2
-3,5,5,9,6,-8,-121,-12,2
-11,8,2,-10,-11,11,127,-2,2
-5,-12,-9,4,9,3,-11,-3,2
15,13,13,-2,17,26,-55,-2,2
-25,5,-5,-15,-9,-12,-11,-1,2
16,24,4,4,5,0,-36,6,2
-52,-34,-20,-2,-31,-27,96,-6,2
-1,-37,-26,0,5,10,-23,2,2
9,33,13,-2,8,2,-23,7,2
-6,-24,-32,-10,-4,-6,-45,-6,2
15,46,39,-4,11,8,29,-1,2
-7,-11,-6,1,-7,-7,76,-3,2
1,-21,-18,4,-1,3,-1,-11,2
12,-24,4,-11,2,-7,10,-4,2
23,21,-2,8,3,10,3,-4,2
4,5,6,-10,4,4,37,-8,2
5,-8,-1,15,-2,5,-17,-3,2
10,0,-7,-10,5,13,71,-5,2
-5,4,7,-20,3,-8,11,14,2
-9,-11,18,9,-17,-12,27,-2,2
-21,13,-12,-18,8,12,127,15,2
-11,-7,-1,27,-24,-32,-107,-2,2
8,3,-1,1,0,6,-11,-3,2
33,9,7,7,6,9,22,-2,2
-42,-26,-6,-24,-6,-6,76,-19,2
-4,4,5,-8,8,10,89,-8,2
2,-6,-6,9,-9,-17,-77,2,2
-3,-3,-5,-4,1,12,127,5,2
9,1,6,10,-3,-7,-123,-11,2
0,7,-6,0,6,6,10,-9,2
34,5,16,-26,22,14,40,-5,2
-36,-13,-9,6,-28,-30,-104,-6,2
14,19,-1,2,1,6,26,-7,2
-11,0,5,5,1,7,9,1,2
7,16,6,-28,16,13,-32,-2,2
-1,-7,-10,4,-8,8,77,-17,2
8,-26,0,4,10,8,8,0,2
-1,28,7,-3,-8,-9,-28,0,2
3,1,4,12,7,14,-80,-6,2
19,8,4,-26,24,15,27,3,2
-79,-32,-26,18,-58,-41,4,-33,2
21,2,-1,-6,12,15,-25,-5,2
0,4,6,1,0,1,27,2,2
-4,-20,-3,-4,-3,0,-30,-1,2
51,28,29,-8,33,21,75,6,2
-39,-12,-10,-9,-19,-44,-89,6,2
-4,5,-14,6,-8,9,68,-2,2
-38,-18,-24,24,-26,-14,-56,-4,2
18,1,-8,-10,12,12,-31,19,2
10,2,15,-3,6,9,14,-5,2
18,5,-10,10,1,-4,-30,-5,2
1,5,25,-10,11,3,14,3,2
4,27,9,26,-7,1,20,0,2
-8,-19,-9,-7,-7,1,18,-5,2
-2,5,8,14,0,-4,44,-3,2
-2,19,-15,-26,-4,-4,-36,4,2
-16,-65,-24,-27,-4,-9,-22,-11,2
17,45,8,-18,9,2,-55,3,2
-19,-20,-3,12,-14,-11,117,-4,2
-22,-41,-25,19,-1,-12,-75,-5,2
31,60,20,22,-2,10,-94,0,2
9,-38,-3,12,8,11,39,-1,2
-11,14,-8,-17,-2,8,-4,2,2
-14,3,17,-8,-2,-12,-1,-4,2
15,-3,-8,8,1,-2,-64,14,2
-7,-13,0,-2,2,4,-10,1,2
-6,-11,6,35,-1,1,-64,-9,2
19,16,10,2,13,5,54,8,2
3,8,-7,-38,1,1,51,-3,2
-2,13,-3,-23,-15,-5,-44,-10,2
-6,-17,-8,2,-11,-22,-96,-4,2
7,9,-1,11,-1,3,-5,-4,2
11,-10,7,9,7,-4,-85,2,2
-10,-6,-3,4,8,10,38,-8,2
-19,-22,-13,-27,-6,-4,-13,5,2
26,43,29,12,3,10,74,2,2
-17,-23,-10,6,-2,4,-26,4,2
1,-3,-22,0,0,-3,-36,-3,2
13,23,44,-3,5,0,11,-2,2
-12,-21,-22,-4,-10,6,88,12,2
0,0,0,0,-19,-40,2,-1,2
6,-12,-12,22,5,8,49,-1,2
8,-5,-7,5,4,6,39,-9,2
-4,8,-2,-13,-3,-19,-63,-14,2
-7,0,29,4,1,10,35,1,2
8,34,22,32,-5,-9,-4,-3,2
6,-11,-18,-14,-1,7,55,8,2
36,28,17,-11,22,16,26,-5,2
-51,-41,-24,16,-27,-21,74,-8,2
-14,4,17,-2,-5,-11,-45,13,2
-1,7,-2,-14,2,9,55,-1,2
6,4,-16,7,1,12,27,9,2
10,-9,23,-25,8,11,-12,0,2
-3,-22,-20,-8,0,11,87,-12,2
10,-9,-1,9,3,-3,-44,-2,2
15,21,14,9,-7,-9,-74,-5,2
20,30,-6,-2,5,5,-55,-2,2
-11,-11,2,-20,-1,4,56,-4,2
-10,-16,-14,15,-2,-1,-59,-6,2
-2,-6,8,-3,3,-3,-22,-5,2
18,13,0,-2,10,19,17,2,2
-11,-13,-6,-12,-4,-6,25,-14,2
-6,-10,0,-5,-7,-6,-34,-6,2
-5,-13,-3,5,-2,4,12,6,2
4,9,-1,0,8,11,113,-8,2
11,4,5,-18,9,9,11,11,2
-36,-11,-11,-4,-23,-23,58,1,2
0,-4,8,11,5,2,-40,-10,2
0,-27,-5,-9,5,2,23,-2,2
-14,-6,-10,-9,-13,1,101,-15,2
-4,0,-8,17,-9,-14,-7,-2,2
-10,-13,-18,-3,-7,0,23,-4,2
15,20,8,-2,10,3,-36,-6,2
0,3,8,3,5,-8,-56,2,2
8,15,4,18,2,5,26,6,2
-23,-22,-20,7,-7,-5,-86,-5,2
-4,31,21,-16,-3,-6,-10,-6,2
2,-6,-5,-2,-9,-11,-10,-1,2
-9,8,2,9,8,6,-61,-6,2
-4,-21,16,5,7,-2,-10,-4,2
-25,7,-25,18,-11,-2,-10,-11,2
-5,0,11,-8,-12,0,54,0,2
10,16,13,0,9,-2,51,8,2
-25,-14,-8,4,-15,-19,-110,1,2
9,-16,-6,-6,4,5,55,-5,2
10,11,10,-11,18,10,33,-4,2
-1,-8,-6,17,-11,-13,-61,4,2
0,3,0,3,0,3,54,1,2
15,4,2,-6,4,-1,-98,-2,2
23,10,-6,14,-2,-9,4,-7,2
-1,0,6,-17,0,19,8,-7,2
4,-9,-3,-10,-6,4,41,-6,2
-6,-21,-4,7,-1,-3,-34,0,2
8,26,19,-3,3,-3,-63,5,2
7,-10,-16,-7,3,9,44,4,2
-9,5,5,2,-6,-4,31,-5,2
2,-13,-8,5,-2,1,59,-7,2
-19,-11,-2,5,2,3,-29,-1,2
-7,-6,-2,-7,-2,-11,13,-9,2
14,12,-6,0,-5,-4,-53,-3,2
8,-3,18,-3,12,8,85,4,2
-40,1,-30,16,-24,-10,39,-2,2
22,14,3,-17,12,11,-34,-7,2
19,9,12,-8,19,8,-43,-3,2
-22,-19,-33,21,-36,-29,60,11,2
6,-3,4,-3,6,0,-64,-7,2
1,-8,-6,15,1,-3,-33,3,2
17,11,3,1,5,6,39,3,2
-6,7,-25,-16,6,9,76,-3,2
3,-5,29,-3,-5,-3,-29,5,2
-12,26,-7,1,-8,-3,-26,0,2
1,-17,-18,4,0,-5,-54,-11,2
-2,-12,6,5,10,24,81,3,2
-7,21,-1,25,-11,-42,-80,-1,2
5,10,12,-1,2,7,5,2,2
27,21,13,-3,0,2,127,-8,2
4,5,8,-7,7,-4,-41,-1,2
-11,-29,-17,1,-11,-6,44,-2,2
14,-8,4,-13,2,7,55,-3,2
-14,3,-8,-8,-6,-11,39,17,2
9,6,12,5,4,-10,-128,-6,2
-2,2,-13,-17,2,13,114,1,2
-7,-8,-14,-6,0,1,94,7,2
-12,0,2,3,-6,5,74,3,2
-1,3,0,-1,-7,-8,-71,-2,2
11,18,5,13,14,7,-21,3,2
-13,-5,-3,-17,-3,0,0,3,2
-10,-10,13,-3,-2,4,-40,-10,2
21,11,3,-5,5,0,4,-1,2
-48,-56,-23,-17,-17,-15,16,3,2
4,21,15,5,-8,-6,-74,-10,2
4,1,-2,4,5,6,-22,-2,2
-9,-7,-7,25,-4,-6,-1,-4,2
24,9,7,-16,12,16,22,-1,2
1,-11,1,1,1,-1,18,-4,2
-39,-13,-22,-15,-15,-26,-76,2,2
9,-7,-1,0,2,9,34,6,2
14,0,-2,14,6,-5,-122,3,2
-4,-9,2,-2,-4,0,56,-7,2
16,11,-3,8,3,-1,-3,-1,2
-14,0,2,-10,-1,-2,10,-4,2
6,8,2,10,5,8,-35,-6,2
2,-12,-7,6,2,3,46,-1,2
5,12,17,6,-1,1,-29,-6,2
-2,10,4,-11,-5,-2,-14,-7,2
-11,-15,-17,3,-4,-5,6,-5,2
12,6,7,-10,13,7,-31,-6,2
-25,-22,-18,16,-11,10,-7,-9,2
10,26,12,-10,0,5,77,-6,2
2,12,-29,-10,-8,-14,-68,-16,2
-26,-45,2,19,-3,-6,-3,-4,2
-4,0,-20,-4,1,2,14,-5,2
6,12,10,2,10,9,2,6,2
14,2,11,3,7,6,-18,-2,2
-17,-6,-12,0,-6,-9,-13,7,2
7,-4,11,-3,-3,0,26,6,2
-12,-19,-6,22,-3,-5,-30,-6,2
12,12,10,-31,8,16,77,-2,2
9,9,-4,-16,-14,-12,-34,2,2
7,2,0,0,1,11,109,-2,2
13,3,0,-11,0,-3,-28,-2,2
-23,-15,6,4,1,-6,-42,9,2
12,10,2,15,3,0,-38,0,2
-5,9,1,-7,2,-6,-21,-2,2
-12,-32,-29,-7,-6,6,87,4,2
12,16,12,-16,-1,-2,-61,3,2
11,12,11,-8,3,4,-12,-5,2
-1,-1,-4,8,6,3,16,6,2
-10,-1,5,-2,-4,-9,-40,-2,2
3,-20,-4,6,0,2,15,4,2
-2,11,1,10,4,3,-18,-1,2
13,-3,12,-9,1,4,57,0,2
-11,9,11,-12,-14,-20,-34,7,2
4,-7,-9,4,-10,6,102,-13,2
9,-1,-3,-6,6,4,38,-4,2
1,-1,1,9,3,-7,-76,-3,2
5,-5,7,3,8,6,52,2,2
-7,-1,4,-6,7,5,57,-12,2
-8,-22,3,28,-20,-18,-71,-9,2
5,-12,-39,-8,0,1,-14,-6,2
8,1,20,-3,6,1,-29,-6,2
3,5,3,1,3,3,7,-14,2
-2,22,5,-3,0,-3,20,-7,2
0,0,3,15,-5,3,-45,-5,2
3,4,-8,-7,-1,-4,-60,-11,2
-3,-14,-7,-8,-1,5,46,-5,2
-7,-6,-5,0,1,-3,-44,16,2
0,-11,1,-9,5,3,5,5,2
-11,24,-4,-1,-5,-2,15,-9,2
-2,-10,27,-1,3,5,-27,9,2
-13,-36,-39,-9,-4,-4,-18,1,2
12,8,-5,-6,-1,1,23,-3,2
15,-1,-2,-6,9,6,-21,-13,2
2,4,-9,-10,1,6,99,4,2
-9,6,3,7,-17,-15,13,-2,2
3,-4,5,-1,-1,-9,-55,6,2
0,-16,-8,-13,-4,2,12,-1,2
5,16,-5,3,3,-3,-49,-10,2
6,8,4,4,9,18,108,-7,2
-10,-4,-4,18,-11,-9,32,-8,2
8,28,2,-8,0,-4,-37,1,2
-4,-10,-1,4,-6,1,-21,7,2
12,13,2,-11,11,3,-21,4,2
-11,-6,12,12,-7,-2,-9,-4,2
-4,-7,-8,9,3,0,-25,2,2
5,40,19,31,3,-3,11,-9,2
5,-13,-1,-36,-2,1,7,4,2
7,11,-6,-13,3,-1,-56,-2,2
14,26,25,6,-5,1,52,-10,2
-18,-3,-6,-1,-10,-20,-119,-11,2
-2,0,6,18,-1,5,40,-1,2
7,-1,-7,-7,1,0,4,2,2
-1,-12,-4,1,6,3,-53,-3,2
-2,-1,-4,-11,-1,0,98,7,2
-30,-20,-13,2,-15,-15,-46,-2,2
2,6,5,0,-3,0,36,-2,2
5,-5,-3,-3,0,-1,1,-9,2
5,2,0,-2,5,6,37,4,2
3,4,-12,-3,6,4,24,-1,2
-11,-7,-4,-1,-3,-3,8,-4,2
-6,-1,3,-4,2,-2,17,-2,2
2,1,-4,0,-10,-6,24,6,2
11,7,17,7,6,5,-24,-2,2
-30,-4,-4,-13,-12,-13,60,-12,2
0,-23,-17,2,8,9,60,8,2
-4,24,22,-12,-10,-21,-116,-9,2
1,0,-13,-2,-6,5,62,-7,2
-4,-2,4,1,1,10,-11,5,2
2,0,-2,8,0,2,26,15,2
-8,-18,-11,4,6,2,2,5,2
1,9,1,0,2,1,-15,4,2
-4,19,30,-2,-2,-3,-45,1,2
-3,-19,-9,10,-7,-3,0,0,2
4,3,0,0,1,2,-55,-4,2
6,7,3,-3,1,-3,-5,-3,2
-2,-14,-16,2,0,5,50,1,2
-4,-1,1,-5,-6,-9,-33,-6,2
8,2,11,-3,7,7,20,2,2
3,-8,-5,-5,-2,0,49,5,2
1,-27,-4,15,3,9,25,-6,2
-16,3,-2,-4,-10,-17,-86,-6,2
-1,-17,-8,0,-5,4,0,0,2
11,26,13,-7,8,2,55,2,2
2,1,-2,8,0,-5,-81,-6,2
-4,-2,7,-9,8,8,30,-16,2
12,10,1,-18,0,5,46,5,2
-3,-10,-4,19,-13,-9,-48,-5,2
14,4,-1,-4,6,2,-11,0,2
-7,-14,-9,-13,-4,-1,64,5,2
-2,5,9,1,8,3,-19,-10,2
9,8,12,6,1,5,-25,-7,2
-6,20,-8,-10,-3,-7,49,-1,2
4,5,-1,-1,-6,1,-18,6,2
-9,-35,-13,-2,-3,-1,-5,-8,2
-3,-6,-1,1,0,-2,5,-7,2
0,-12,-8,-3,8,2,-25,4,2
-8,21,-2,12,-2,1,19,-10,2
-6,0,-8,0,-6,-5,-38,1,2
4,-1,10,-5,7,3,-69,-4,2
2,-4,5,3,-3,3,86,9,2
-8,15,-14,7,-5,-5,-8,-11,2
7,-4,-9,14,-4,-12,-39,-1,2
-3,-3,-2,-1,4,-4,-91,-4,2
1,-8,2,-5,5,8,36,5,2
19,19,28,-6,-4,-4,-7,-6,2
-28,-23,-25,-5,-11,-1,88,-6,2
-9,-11,-17,7,-8,-7,-40,-1,2
3,-5,0,-4,3,0,-5,-6,2
9,-3,8,-6,5,4,30,6,2
1,25,5,3,-1,-6,-117,-7,2
-8,4,-2,2,1,6,81,4,2
-6,-20,-4,10,-6,-3,-25,-9,2
0,-7,-11,-3,-3,-2,-34,7,2
12,3,7,-12,8,8,78,2,2
-8,-11,-8,6,0,-4,-34,2,2
6,42,12,5,0,-5,-19,2,2
-7,-25,-9,3,-4,-8,-34,6,2
9,13,6,11,1,-9,-69,-1,2
-5,-19,1,-1,-4,0,25,-7,2
25,7,-11,-6,5,9,-35,8,2
-27,-22,4,12,-9,-12,-28,-7,2
23,7,-24,-4,4,6,22,1,2
7,0,24,4,2,7,21,-3,2
1,7,10,-1,-3,-12,-24,-8,2
3,-4,-6,-9,1,-3,-30,8,2
-11,-13,-2,-2,2,2,-1,0,2
-5,21,3,0,-2,-2,3,2,2
-2,-12,-25,-13,-4,3,48,-6,2
9,30,21,4,3,0,13,2,2
-13,-6,27,-1,3,-1,9,6,2
2,-2,14,-1,-3,-1,43,6,2
-5,5,19,6,-8,1,56,-7,2
-7,-15,-25,-6,-4,-4,-52,-2,2
4,-12,-10,0,5,3,86,-3,2
9,29,-5,-12,-3,-10,-78,-21,2
-26,-55,-45,-10,-12,-4,23,-6,2
5,28,44,9,-6,2,-35,-3,2
6,6,-6,-3,-2,4,-21,-6,2
-2,-5,1,-9,9,8,8,-1,2
-14,6,-11,-5,-3,-7,2,-1,2
11,-8,-12,-8,4,3,24,-8,2
-4,-3,-4,-1,0,2,-8,-9,2
5,0,-4,-2,-9,-3,14,-1,2
3,6,18,0,3,-2,-45,3,2
-16,-19,-16,-13,3,5,-23,1,2
3,0,4,6,-4,-6,10,6,2
-14,-8,-1,3,-4,-8,-41,-8,2
17,4,-4,6,4,0,-29,13,2
1,12,-12,-6,7,15,33,-12,2
0,11,19,-10,3,-9,-33,9,2
5,-4,-7,24,-12,-7,5,13,2
6,10,16,6,5,5,-59,-8,2
1,-10,9,-7,2,-6,-21,-5,2
0,-11,-23,-18,2,7,9,8,2
-1,2,-22,8,2,3,51,0,2
-1,6,17,-18,0,-3,-17,1,2
3,-9,-4,18,-3,-1,26,-2,2
-1,-5,7,5,-3,7,21,-8,2
16,17,25,-9,14,15,53,-1,2
-21,-30,-31,8,-8,-7,24,-11,2
25,19,12,-1,0,-4,-33,-7,2
1,3,-6,13,-4,5,2,-6,2
2,-8,8,-2,0,2,64,6,2
-3,3,6,2,3,-6,-14,1,2
-2,-8,-5,-9,0,0,17,5,2
-2,-5,-7,4,4,10,56,2,2
-10,-12,3,0,6,-14,-66,13,2
-1,8,9,1,-11,-4,-31,-3,2
-14,-14,-13,0,-2,2,25,-1,2
6,2,5,-1,-7,-6,30,5,2
-6,-10,-8,-5,4,7,-13,-8,2
11,25,26,0,4,2,18,-1,2
-9,-48,-8,-19,-4,0,42,0,2
-10,7,-12,21,-6,-6,-58,-11,2
3,6,1,0,-1,2,59,-6,2
8,4,7,-2,-3,3,-37,-13,2
2,10,-2,-3,4,2,34,5,2
10,0,6,-6,4,-4,-21,-1,2
-6,-8,-17,-3,1,0,-31,-12,2
-11,-5,-3,6,-15,-2,120,13,2
-1,5,2,-2,-1,-1,-2,2,2
-14,-26,-11,-1,-2,1,-10,-5,2
7,17,-1,-1,1,5,4,10,2
17,8,-4,-4,9,3,12,-6,2
-29,19,23,-2,-7,-14,15,-12,2
-9,-38,-30,2,-5,0,0,0,2
-5,0,6,-1,-5,-3,16,-3,2
-3,-10,-5,-7,-1,0,7,-3,2
3,4,0,2,3,-1,-34,-3,2
5,15,4,0,3,-2,16,-5,2
-19,-20,-17,0,-10,-8,9,-12,2
-4,6,-3,-5,3,2,24,5,2
-7,10,-5,7,2,10,-16,-9,2
5,5,15,-1,-2,-8,-19,0,2
28,13,5,9,-7,0,-94,-5,2
-4,-2,-1,-2,3,0,61,-8,2
6,-16,-27,-4,0,0,-27,4,2
1,-13,-11,6,-5,-13,-59,-2,2
-18,2,-10,-7,-5,-5,7,12,2
7,3,5,0,3,5,-41,-3,2
6,6,0,-3,3,3,18,-6,2
3,-2,4,-3,2,0,72,9,2
-10,-8,-10,-2,0,-1,30,-4,2
-8,-8,-6,7,-3,2,-51,-6,2
-5,-6,-7,-1,-3,-3,1,2,2
13,11,13,-5,-1,4,23,1,2
6,6,7,-3,5,3,25,0,2
-8,-15,-15,-17,7,2,44,-12,2
-22,16,7,7,-25,-15,-40,-14,2
-10,-3,4,5,-5,1,-10,-15,2
6,1,2,-5,2,2,13,0,2
4,-1,-6,-2,-1,-1,-1,-18,2
9,-3,-13,-11,6,-2,-28,-2,2
0,5,10,-6,1,2,7,1,2
-18,-20,-14,3,-6,-3,12,-1,2
-2,2,6,5,-1,-1,-50,8,2
16,4,17,0,5,5,41,-5,2
-8,3,-11,-3,-2,-4,8,-4,2
9,3,-6,3,1,2,7,-4,2
17,8,18,10,9,0,-34,20,2
1,-6,-3,-14,-1,2,59,-8,2
-26,-18,-4,-2,-16,-2,34,12,2
16,6,-2,0,-3,1,-36,2,2
1,-3,3,-1,1,4,13,5,2
14,17,-2,-1,10,9,78,10,2
6,9,5,-3,6,-1,12,-5,2
-7,-2,7,2,-6,-3,7,1,2
-10,-3,1,-6,-1,0,39,12,2
-1,-7,8,-3,-5,-17,-93,0,2
-12,-8,11,-6,-1,11,57,0,2
-5,-9,-22,6,-3,2,-6,3,2
1,2,-3,-4,-4,-1,73,-8,2
3,-4,-2,3,-1,-3,1,6,2
0,11,3,2,6,-3,-36,-5,2
1,3,12,1,8,4,8,-2,2
6,-5,2,2,2,-4,-89,-10,2
6,7,-7,-7,-2,6,-63,3,2
1,-10,-12,3,-5,2,-2,-2,2
-7,-19,2,1,-1,-2,-43,4,2
12,17,6,-6,-5,-1,1,-8,2
5,11,0,6,6,2,-6,-3,2
3,-3,-4,-1,6,2,-31,1,2
4,9,23,2,5,1,11,-5,2
-1,11,6,-4,-1,-4,-45,1,2
3,-6,-28,-11,-4,-1,54,-7,2
-13,1,5,17,-4,-3,-69,-7,2
-10,10,-1,-8,-7,-3,35,-6,2
10,-2,-9,10,-10,-7,36,-6,2
-2,8,-3,-1,4,1,-13,6,2
5,4,-9,-5,0,-3,36,2,2
-13,-9,-1,0,4,-9,-113,-4,2
-9,-5,1,0,-8,0,73,17,2
3,-12,3,7,3,5,36,-6,2
-3,-7,1,-5,-2,-8,-80,-9,2
2,7,9,-4,0,5,58,2,2
-6,-7,-3,-5,0,2,-10,-1,2
-7,-11,2,-3,5,7,70,-10,2
-10,0,-1,1,-11,-16,-68,4,2
1,2,-2,4,-5,3,36,-6,2
-15,-8,-10,3,1,-2,-35,-6,2
-4,-4,6,1,-1,-2,-1,-12,2
16,9,11,-1,8,6,17,0,2
0,-1,-2,4,-6,-4,-12,-6,2
-15,-10,-9,3,-7,-9,-16,-4,2
-14,-22,-23,-5,1,-1,36,8,2
12,25,-1,2,-3,-5,-27,-1,2
4,-21,-9,-2,-4,-2,31,6,2
10,-5,-14,-11,6,7,3,3,2
11,25,46,0,-3,1,45,10,2
-25,-2,-13,-5,-3,2,109,-1,2
3,-9,-9,11,-11,-10,-27,-4,2
13,20,4,-6,8,4,0,-3,2
-8,7,4,10,-1,-3,-110,-4,2
-3,2,-2,-5,1,6,56,6,2
-1,-1,-1,3,2,1,18,6,2
3,0,14,2,-3,-1,43,-1,2
5,-19,-25,-5,0,-7,-52,-4,2
6,8,15,1,5,6,-31,7,2
-26,-8,-30,1,-10,-8,68,-6,2
25,6,6,10,6,8,-50,-11,2
-10,-11,-7,-8,1,-4,-30,0,2
0,14,-9,-7,-5,1,67,-9,2
12,4,11,0,-3,0,-31,-10,2
3,20,-1,-5,0,3,27,-10,2
-5,-30,3,1,0,4,54,-6,2
0,-66,-40,-3,-2,-1,18,-12,2
9,16,10,1,7,10,-10,-12,2
2,-2,-8,-10,0,-1,2,-6,2
-7,-17,-2,12,-13,-18,-79,9,2
2,18,26,-2,9,8,7,-1,2
0,-1,-7,-2,1,9,86,-7,2
0,-18,0,-2,4,0,-41,6,2
4,13,1,-8,4,7,28,-5,2
-3,14,10,9,-2,-2,-26,3,2
11,1,7,-9,0,-2,-47,13,2
-14,3,9,-1,-2,-1,-46,-2,2
-11,-1,-7,-10,-12,-2,127,0,2
2,-3,1,26,-2,-8,-106,-5,2
5,-3,-2,-6,6,-2,-25,5,2
-12,1,11,4,-6,-5,-6,3,2
-6,7,-10,3,-7,-3,-27,1,2
10,12,3,-8,3,9,-46,-13,2
7,3,23,-2,7,10,119,-4,2
3,1,-6,4,-5,-10,28,12,2
-15,-15,-4,1,-3,-5,-20,-5,2
15,3,0,-6,4,5,-25,4,2
13,19,-4,0,2,-13,-123,4,2
-5,-7,-1,-1,-4,2,52,-12,2
17,33,18,-1,9,10,-5,-2,2
-19,-28,-20,-9,0,-2,127,13,2
13,-4,5,6,-6,-5,-50,3,2
-17,-14,-6,1,-4,0,53,10,2
3,8,4,9,-2,-12,-94,-1,2
-5,12,-21,-2,-1,3,29,6,2
-13,-42,-13,2,1,3,-5,-2,2
20,25,29,-10,10,9,-16,1,2
-24,3,-13,4,-12,4,72,1,2
-7,-17,8,0,-9,-10,28,-1,2
-10,15,1,3,-2,-9,-1,0,2
-9,-27,-19,-1,-7,-7,-81,6,2
8,1,11,-9,10,2,-21,0,2
6,10,-1,-4,-3,0,-14,-5,2
-9,-1,-3,-2,-4,4,4,-5,2
3,0,0,-2,-2,3,70,2,2
-10,-18,-7,1,-10,-11,-41,1,2
2,-1,-1,2,2,7,66,-8,2
6,11,5,-3,5,-6,-64,7,2
-9,1,-1,3,-6,-2,40,-13,2
4,-9,-10,3,0,-7,-50,0,2
-4,0,7,-3,-4,-3,-33,-10,2
-5,3,-16,-8,3,7,35,-4,2
2,-4,1,10,-6,-10,-38,-1,2
-4,0,1,5,-1,-2,-65,-4,2
1,8,16,0,-3,-1,-2,1,2
6,-27,-17,-4,4,2,34,0,2
-4,22,-3,1,-5,-2,-13,-14,2
4,-5,-5,-7,4,4,75,-3,2
10,8,5,-2,7,1,-21,-7,2
5,-13,-3,1,-5,7,33,8,2
1,13,-3,-6,0,-6,-61,-2,2
6,-27,16,2,-4,-8,-65,-6,2
1,5,1,10,-4,4,42,2,2
-9,2,3,3,2,0,26,-9,2
-7,-12,-13,-10,3,6,68,-8,2
-9,22,20,3,0,10,-58,-14,2
-13,-39,-36,5,-9,-18,-79,-6,2
-8,3,2,-2,-3,1,-41,-9,2
5,-4,-5,-2,4,4,-9,-6,2
18,26,14,-8,12,13,54,-15,2
-3,0,4,0,-1,0,3,6,2
-9,25,-4,6,-13,-3,10,3,2
-5,-12,-7,-2,2,-3,-9,14,2
1,-2,-15,-1,-1,0,9,11,2
6,-3,0,-3,4,0,-3,-2,2
6,6,0,-6,4,1,-28,3,2
0,-7,12,9,-6,-4,-69,-7,2
-6,-7,-8,-5,2,-3,50,-18,2
17,33,30,0,-4,-1,-92,5,2
-11,20,15,0,1,5,-4,-2,2
-27,-32,-17,0,1,4,74,-6,2
17,7,2,-5,3,0,34,1,2
-7,-5,-6,1,1,-2,-28,-11,2
-3,11,7,9,10,0,-80,-17,2
3,-16,-6,-2,-10,-3,43,7,2
1,3,-5,-1,-2,-3,-57,10,2
-10,-6,0,-1,0,0,36,-4,2
7,2,-2,5,-5,-3,30,7,2
-3,-5,1,-4,3,-3,-18,-8,2
-1,-3,-2,-7,1,5,35,5,2
26,12,4,5,7,3,60,23,2
-24,-19,-2,-5,-9,-13,29,-5,2
-6,19,1,5,-10,-1,-94,7,2
-2,-17,-3,7,-1,-3,3,4,2
0,0,2,-6,-1,1,6,-1,2
9,1,-3,-3,3,2,19,0,2
5,5,10,-3,4,3,39,5,2
24,5,1,1,-2,4,63,-1,2
-18,-18,-22,0,2,-4,-34,-17,2
19,-1,5,-7,12,0,5,9,2
-9,9,12,9,-19,-11,-71,1,2
-22,-8,-19,-7,-5,-2,9,5,2
5,-10,-2,-2,-1,-3,39,1,2
1,-8,-5,3,-4,2,20,-7,2
7,-7,-7,-8,11,4,45,0,2
-1,12,2,0,-1,-4,-17,3,2
-5,6,11,4,-1,3,-15,0,2
-1,-9,-1,0,-5,4,7,-23,2
8,15,-3,-20,15,4,99,-16,2
-22,-21,12,19,-19,-17,-60,7,2
4,-4,-23,-3,-7,3,-14,-11,2
2,1,1,4,-7,1,36,2,2
11,3,-1,-2,7,3,2,-11,2
8,4,4,-5,9,3,10,-10,2
-12,-11,3,-1,2,-1,4,0,2
7,20,-1,1,-4,-1,-9,4,2
14,11,9,-1,2,-2,-26,3,2
-17,-12,-21,-4,-7,-5,43,-11,2
-22,11,24,9,-11,-8,-65,8,2
1,-12,-3,0,0,2,13,0,2
3,-2,-4,-3,1,2,-16,4,2
1,9,2,-7,3,1,26,-4,2
4,-6,-2,-3,4,4,30,-7,2
5,5,11,2,-5,2,25,-6,2
-12,-26,-24,2,-5,-20,-105,1,2
-3,19,16,-8,2,2,17,-4,2
4,-1,-18,-3,-2,-4,36,-1,2
-6,-5,4,4,-7,-9,21,4,2
0,8,1,5,-2,3,-30,-9,2
3,-7,-1,-9,8,11,100,-12,2
-5,4,-5,3,-6,-13,-10,5,2
-6,5,-7,-2,-5,-9,-31,8,2
-4,-7,-1,4,3,5,41,3,2
8,-3,-1,0,1,3,-37,6,2
7,1,5,-2,4,9,25,3,2
-11,-31,-17,-4,-2,-4,40,-5,2
8,29,8,2,-7,-12,-35,-2,2
2,-22,-11,0,2,5,-35,2,2
19,44,20,-9,2,2,-5,2,2
-16,-37,-24,0,-4,2,-34,-6,2
-15,-9,-13,0,-5,1,4,5,2
7,28,2,-2,1,-4,-13,3,2
-2,-8,6,0,4,6,15,-11,2
13,13,-5,-8,2,0,-29,-5,2
-11,-8,22,-3,1,0,55,3,2
4,8,-7,9,-2,4,-65,-9,2
12,10,1,2,1,9,81,-5,2
-2,-8,4,3,-1,-5,-56,11,2
6,-3,-11,-7,4,12,90,6,2
-9,-3,11,5,-8,-20,-39,4,2
3,-7,-3,2,1,-1,-5,2,2
-4,-1,-2,1,-6,-1,8,-3,2
-6,-13,1,-6,-1,2,37,-3,2
6,10,14,-5,10,12,107,4,2
-16,-27,-38,13,-14,-31,-128,-17,2
-4,1,-5,0,2,10,118,3,2
4,-8,-2,1,1,3,21,-12,2
6,7,17,-3,3,4,-9,-10,2
7,-2,2,6,0,-1,-18,-6,2
-8,16,5,-4,2,3,-19,-4,2
1,1,-8,-3,-3,-6,32,-14,2
-4,-27,-9,-1,-2,1,-45,-3,2
-3,15,16,-7,2,11,122,3,2
9,-4,-6,2,-3,-17,-108,3,2
-3,6,1,3,-1,6,33,-3,2
1,-5,-7,-3,-3,-5,1,-1,2
-2,-4,4,-2,-2,-3,-38,11,2
11,3,-9,-10,12,12,34,9,2
-15,3,9,0,-10,-14,-18,-7,2
-4,-5,-8,5,-10,-7,55,8,2
-11,-6,2,-2,3,10,19,1,2
7,10,9,-3,6,8,-61,-1,2
15,-2,-12,-2,4,10,-4,3,2
-10,-6,-15,-5,-4,1,38,-8,2
3,2,2,-5,0,-7,-34,14,2
-3,-17,3,8,4,1,-73,-13,2
-5,2,33,-4,2,2,15,3,2
9,14,14,4,-1,-5,-76,15,2
0,1,-22,0,2,8,7,-5,2
-3,-5,26,-2,-11,-18,-20,3,2
-2,-22,-40,-3,-5,-5,-61,-3,2
4,6,-1,-2,5,3,-20,-2,2
2,-4,4,-5,0,2,-12,-7,2
1,6,0,1,2,8,68,-2,2
-3,-14,21,7,-2,-1,-40,-4,2
-3,-4,-19,-6,-9,-12,-10,6,2
-9,-10,-6,0,-3,2,34,-3,2
12,12,11,7,2,0,21,2,2
-3,12,-1,4,3,0,-50,-3,2
7,6,0,-4,7,10,31,1,2
-5,-3,1,7,-1,-21,-128,-5,2
-20,-4,-13,5,-16,0,127,0,2
-6,0,1,-1,-5,2,20,-7,2
-1,-11,-4,0,5,0,-62,-5,2
10,4,-6,-1,2,3,32,-6,2
9,2,17,-6,6,2,-20,-7,2
7,4,-23,-6,1,-1,45,5,2
-15,-16,0,4,-10,-13,-68,-11,2
-4,-17,16,6,-1,6,70,10,2
-3,18,-9,2,-4,-5,-56,6,2
10,15,4,-5,3,1,13,-2,2
9,6,2,-1,5,4,-1,-12,2
-11,-11,-20,4,-8,-5,58,-1,2
0,-9,-4,7,-4,-7,-33,-2,2
5,-3,5,0,2,2,-48,-4,2
-5,11,0,-7,-4,2,8,-12,2
-8,-1,1,-2,-4,-2,10,-5,2
12,-4,-7,-1,3,6,13,9,2
-4,-7,-20,-5,-8,-18,-15,3,2
4,11,28,-5,10,10,60,-4,2
-2,6,4,1,-6,0,48,0,2
-3,3,-7,1,-3,2,22,5,2
-6,-9,1,-3,3,1,-6,5,2
-2,-5,-4,2,2,1,69,-8,2
9,4,-8,-1,-1,-13,-25,0,2
-17,0,3,0,-7,-5,11,-16,2
16,20,23,-4,12,7,24,-5,2
-25,-20,-15,0,-10,2,22,0,2
8,4,10,-1,2,5,-8,0,2
-3,-7,-8,-8,1,-2,68,-11,2
1,6,12,2,0,-3,-46,6,2
10,-20,-16,1,2,6,60,10,2
-1,4,-1,-5,4,6,-46,-3,2
-8,-15,-10,7,-6,-6,-92,-5,2
3,5,11,-7,1,10,44,-1,2
-7,-4,4,-1,-3,-6,-58,3,2
-6,9,-2,-5,-1,4,12,1,2
3,4,-2,2,-2,-2,9,-12,2
-3,-5,-2,1,3,3,-3,-8,2
-9,0,-7,0,-6,-2,62,-19,2
3,-1,-1,6,3,-1,-26,2,2
3,5,7,-12,2,3,49,2,2
-6,-14,-9,0,0,-2,-51,-5,2
8,14,7,5,-3,-12,-75,-5,2
-1,-5,-6,-3,1,9,79,-15,2
1,11,2,-2,-1,-6,-34,-1,2
4,8,-15,4,-6,-7,-6,-6,2
27,20,12,5,2,4,29,8,2
-6,-1,5,2,1,3,12,-6,2
-10,7,2,-6,-2,-5,-5,4,2
-10,-29,-38,-2,-2,2,44,8,2
6,24,12,-3,1,-1,16,5,2
0,-12,-1,4,-4,-8,-49,4,2
10,-7,0,-2,4,5,35,7,2
-9,3,-1,-10,0,-2,-9,-5,2
-6,-10,2,3,0,11,120,10,2
-3,1,-1,-2,-4,-7,-45,0,2
7,18,15,0,4,8,19,-8,2
-2,3,10,7,-2,-11,25,11,2
-11,-12,-13,-7,-1,4,18,7,2
3,2,-2,-1,-5,-7,-62,0,2
0,-12,1,3,4,13,14,-9,2
3,3,0,-1,-5,-2,-32,1,2
-1,2,-7,1,3,-4,-55,-2,2
-5,-19,-3,-2,-5,3,47,1,2
1,-1,-4,-5,3,3,-53,-9,2
-3,12,-4,-7,-5,3,80,-4,2
0,-6,0,3,0,-6,-30,-18,2
-11,-7,-5,1,-8,-1,44,-6,2
6,1,8,1,4,-2,-36,6,2
-10,-12,3,-1,-3,-1,-12,-14,2
-4,12,-9,-5,3,-1,-53,-7,2
8,18,7,-9,8,14,124,12,2
-20,-11,-2,11,-17,-28,-86,-5,2
-5,-20,19,3,1,3,10,-5,2
12,-5,1,-5,4,6,67,-1,2
-8,2,3,9,2,-3,-68,0,2
6,2,-16,-4,3,4,26,11,2
6,0,12,-1,1,-8,-70,9,2
-11,-11,-6,3,-7,0,-3,-5,2
11,4,16,2,-5,-11,-60,-4,2
4,-9,-11,-2,-4,4,47,8,2
16,9,-3,-10,11,12,77,-3,2
-8,8,7,0,-10,-12,0,17,2
0,-8,-2,3,0,0,-26,0,2
-9,-17,-5,-2,-3,-7,-1,-7,2
5,20,-1,-5,8,9,51,2,2
-3,1,-1,9,-4,-12,-86,2,2
-2,-4,-10,-3,-3,-3,-1,2,2
8,-1,9,0,1,3,15,-7,2
7,-12,-11,0,-3,-5,-17,2,2
12,6,13,0,-2,5,-44,-18,2
-12,-12,-23,0,6,4,50,7,2
-6,2,-4,-1,-7,-16,-46,8,2
-12,-3,3,5,-11,-6,4,-8,2
4,-12,-8,-2,-1,-2,18,3,2
17,8,7,-5,-3,-4,-3,-9,2
6,3,5,-5,5,5,20,-5,2
-15,-4,-10,0,0,2,7,3,2
-13,-11,-1,4,-8,-11,-19,6,2
-9,4,-8,0,-3,0,-25,-7,2
10,13,-4,2,5,6,18,5,2
-13,-10,12,3,-5,-3,-45,-5,2
7,-12,-8,-5,6,11,121,13,2
-9,10,9,2,4,3,-39,10,2
-8,22,-1,1,-5,0,8,-7,2
2,1,-6,-2,2,2,-27,0,2
-4,-1,5,-4,1,2,10,0,2
10,-15,-15,0,3,6,23,3,2
-2,-6,1,-4,-2,2,63,-13,2
0,4,-10,1,-4,-13,-54,-5,2
-14,9,22,-2,-2,2,-14,-7,2
-4,-17,-18,0,-3,-3,-71,-18,2
9,26,18,-3,1,4,36,-11,2
1,-1,3,1,-5,-7,-44,-12,2
-4,-5,-13,0,1,0,-66,-8,2
4,5,4,0,-1,2,54,-6,2
-3,-19,-3,1,0,0,0,-10,2
-4,17,5,-1,0,-2,5,-18,2
-16,-45,-12,-1,-4,-10,-61,-6,2
14,7,-4,-4,3,6,9,-7,2
-10,-8,1,2,-3,-4,-49,14,2
15,7,10,-1,1,8,25,10,2
-1,15,-4,2,4,0,5,-11,2
7,1,7,0,2,2,54,8,2
-17,-17,-9,-4,-4,-9,-100,-15,2
-1,-19,9,6,-2,5,59,4,2
6,33,-23,-8,-7,-13,-72,8,2
-4,-1,0,1,0,2,25,4,2
6,3,-1,2,5,8,32,6,2
-1,-6,-2,-3,1,0,-2,2,2
1,-6,5,-11,5,7,111,-20,2
-3,4,5,9,-3,-7,-23,4,2
-5,-7,-14,0,-6,-2,18,-1,2
0,-10,-10,-2,-1,2,-5,-3,2
10,7,9,2,1,-1,18,4,2
1,8,-3,-3,-1,2,19,1,2
9,-4,6,-1,4,5,14,-3,2
4,6,-14,-9,3,-1,15,10,2
-1,3,9,2,1,4,71,-12,2
-10,-21,-3,-2,-5,-2,-97,1,2
-5,10,1,1,-11,-14,-26,-6,2
-1,9,17,0,0,-2,5,-8,2
-5,-18,-8,0,-1,-1,-5,7,2
4,19,8,-5,0,0,36,-5,2
-6,-6,1,-2,2,3,13,7,2
-6,-1,-6,-4,4,2,-16,5,2
-8,-5,32,-7,6,7,51,9,2
-14,-17,-23,21,-17,-19,-70,-4,2
0,0,4,-1,-2,4,26,2,2
-4,0,-6,-3,-5,0,13,2,2
12,2,-3,4,5,8,-5,-3,2
1,8,12,-6,6,3,-1,-4,2
4,0,-2,-1,1,-4,11,4,2
4,-1,-6,-1,-2,-2,-26,-10,2
-7,-5,-22,-2,0,1,-24,0,2
16,20,16,-4,3,5,73,-2,2
-14,-32,-28,4,-13,-15,-95,-11,2
7,12,9,-3,2,6,24,3,2
-3,4,-4,2,-2,0,-17,1,2
0,-3,-5,-1,3,4,41,-8,2
4,-1,5,-2,6,7,36,-4,2
-6,-1,3,-1,-3,-7,-36,-4,2
5,1,-11,4,-5,-2,-47,-1,2
-14,-4,2,-3,-1,-1,-23,1,2
-2,-6,7,-9,1,7,81,-6,2
-8,-6,-7,7,-5,-3,-57,-9,2
0,2,2,0,-3,0,33,10,2
8,0,3,1,-1,1,53,-5,2
-2,13,4,-1,3,-1,-29,8,2
10,3,0,-3,6,6,58,6,2
-6,-8,0,-4,0,-3,-32,-19,2
-17,-22,0,-3,-10,-8,-122,-14,2
0,26,-4,0,2,5,76,-1,2
3,-11,-2,1,-1,-3,-75,1,2
-4,2,0,5,1,0,11,1,2
6,4,-1,-2,1,2,19,1,2
0,-6,8,-2,3,1,12,2,2
3,4,7,0,0,-2,37,-6,2
3,-4,2,2,1,-2,-33,7,2
3,0,-4,4,0,-3,-77,-2,2
-6,-11,-1,-8,-5,-6,-20,6,2
-3,2,2,3,3,0,82,1,2
3,0,-6,-2,-6,4,37,0,2
3,8,2,0,4,3,45,4,2
13,5,1,-1,-1,0,-28,-14,2
-15,-13,-18,-2,2,-1,-34,2,2
9,-2,11,-1,-5,-6,-13,2,2
-6,-11,-1,4,2,7,105,-5,2
5,-1,-3,-1,-1,-4,-62,-2,2
-11,-6,-4,-4,-3,1,-11,-18,2
-2,5,-3,2,-2,1,11,-7,2
1,4,1,-4,-4,-3,9,0,2
1,-11,-2,3,6,0,13,-11,2
-2,15,16,-1,-3,-4,-13,-7,2
0,0,-11,-5,3,5,28,-9,2
-23,-7,-9,1,-16,-12,36,-8,2
-7,0,-1,-3,-3,7,54,0,2
5,-5,1,1,0,1,26,3,2
4,2,-3,2,2,0,-44,8,2
10,11,10,-2,2,1,-3,0,2
-8,-4,-13,-4,0,1,-10,5,2
-4,1,-1,-2,-4,-3,23,5,2
12,12,4,-2,6,2,23,7,2
-18,-24,-21,-1,-9,-8,4,-10,2
-12,1,3,0,-4,1,-12,11,2
14,2,-5,-3,-1,1,-16,-3,2
-15,2,-12,1,-1,4,19,-4,2
14,25,27,-1,5,1,-25,5,2
-2,-15,-3,4,4,6,26,2,2
-8,19,-1,1,-1,-7,-5,3,2
-1,1,3,-5,-7,-3,2,-9,2
7,-1,5,0,6,12,57,-1,2
-11,-8,-8,-3,-14,-20,-44,9,2
-8,-15,1,9,1,2,-9,0,2
3,5,1,1,0,-3,-27,-2,2
5,-2,-3,2,3,1,4,3,2
11,5,3,1,3,4,-13,-12,2
-6,-13,-6,-3,-2,-5,-37,1,2
-11,0,-7,2,-7,-12,-18,1,2
4,-4,-9,0,1,1,-6,-8,2
0,-12,-8,1,-4,-4,-3,-1,2
6,10,-4,-2,-5,4,-18,-8,2
-2,-7,7,2,1,1,13,-3,2
2,0,2,6,4,0,5,3,2
8,18,22,-7,5,6,4,-10,2
-5,-22,-17,-7,-2,-14,51,9,2
-15,-15,-6,8,-12,-9,-4,-5,2
13,18,-1,-7,0,2,-20,-4,2
2,6,7,2,4,2,37,-5,2
5,11,8,-2,2,1,-22,-2,2
4,-2,-2,-3,4,2,0,-4,2
5,-5,4,-3,-3,-3,5,-4,2
21,11,-2,0,4,0,-14,-20,2
-8,-20,-18,-7,3,7,33,-3,2
6,13,14,8,-4,3,-21,-7,2
1,10,-4,6,-2,-2,-69,4,2
3,-1,-11,-2,0,0,18,5,2
0,8,2,-2,2,-2,-27,-12,2
-2,-7,-2,-5,1,1,21,-2,2
-1,-8,1,1,1,4,26,-4,2
-6,2,-3,-5,-2,-1,12,-3,2
-7,-9,8,4,-7,-10,-94,9,2
3,8,-23,3,-6,-3,54,9,2
-18,-36,4,1,-5,-5,-1,-3,2
-1,-8,-4,-6,2,2,22,-1,2
9,22,17,9,0,4,-28,-9,2
-2,-11,5,-2,-5,-2,-20,5,2
0,-6,-10,-4,2,0,-3,7,2
-3,22,13,-2,-1,0,9,2,2
1,1,6,-4,0,0,83,7,2
-4,6,-8,0,-1,-7,-81,-6,2
-1,-10,-4,-2,0,-1,-19,4,2
-9,-21,-3,1,-3,2,-49,-1,2
6,19,2,-3,1,3,27,3,2
2,-2,-2,2,4,2,1,-3,2
-3,3,1,-3,-2,-8,22,-1,2
-4,-4,-15,2,-3,0,-19,6,2
-3,-3,-1,-3,-4,-6,-65,-1,2
2,1,15,2,4,7,5,4,2
-5,-14,-33,-3,-1,-2,-6,5,2
-1,-13,0,-1,-3,-3,10,-18,2
3,23,0,1,0,3,12,-3,2
-2,4,12,-2,-2,2,64,-11,2
3,12,7,0,3,2,67,8,2
-7,-7,-7,-1,-2,0,68,-12,2
2,-26,-4,4,-1,-4,-12,-4,2
-2,3,7,0,1,2,-54,-7,2
2,13,5,0,-2,4,2,-12,2
9,3,0,-4,4,-2,-9,-2,2
-7,-7,-2,-1,-4,3,65,-5,2
0,-4,-10,-1,1,-1,-16,2,2
0,9,41,-2,-2,-1,41,-6,2
-7,-18,-34,-1,-5,-10,-72,3,2
1,12,9,0,-3,-3,-41,6,2
-3,-15,-2,-2,-1,-5,1,8,2
0,-2,0,-1,-2,1,29,-2,2
2,13,11,0,0,0,49,3,2
-3,-3,-11,-3,3,2,49,-5,2
-5,-5,-5,5,-1,-4,-3,6,2
0,4,-4,3,1,-8,-102,0,2
6,8,7,-2,-1,-1,3,12,2
-1,-12,-8,2,1,3,0,2,2
1,3,4,0,2,0,43,9,2
3,0,-7,0,0,3,1,-1,2
1,5,8,8,-1,-1,-65,-3,2
3,17,8,-4,3,1,-26,-3,2
-1,4,-14,3,-4,3,-10,-4,2
-1,-12,0,2,-1,1,-10,-7,2
-5,-15,-6,-2,0,2,73,4,2
-1,3,5,3,-3,-5,-60,-2,2
11,15,8,-4,3,3,22,1,2
1,8,-8,1,-2,3,-1,-4,2
-6,-9,6,0,0,-2,-23,-3,2
-8,-20,-11,-6,-4,6,45,-2,2
0,-8,-7,-1,0,-2,2,-1,2
-4,-6,-2,-3,1,0,61,7,2
21,12,9,-1,-1,-2,-42,-6,2
-4,-3,-3,-2,-1,2,44,1,2
3,-10,0,-4,-1,1,-42,-6,2
-7,5,5,-1,-6,-2,35,-11,2
-4,4,0,-2,0,-2,0,-1,2
5,8,-8,-2,4,-3,26,8,2
-8,-9,8,0,-2,3,33,3,2
-3,-9,-12,-2,-4,-2,-31,-5,2
-4,-2,3,-2,2,2,-1,-1,2
-4,4,-4,-4,-2,4,38,-7,2
-2,11,-13,5,-1,-9,-82,-9,2
4,5,11,15,-2,3,21,5,2
2,0,24,-5,-2,3,20,3,2
0,-6,2,-6,1,-1,12,-3,2
1,2,1,0,2,1,16,-2,2
-7,-9,-19,0,-2,-2,-44,-6,2
4,12,-7,0,0,0,17,-6,2
5,-20,-4,2,3,-4,-30,-10,2
5,1,0,0,-3,-4,-14,5,2
3,18,6,-1,2,2,-32,1,2
-2,0,-1,-6,-3,0,39,4,2
8,2,-1,3,-1,-5,-75,-5,2
-17,-16,-5,0,-3,1,-74,-11,2
4,17,-10,-6,-1,-2,63,-4,2
-11,-6,2,-1,-2,2,15,-1,2
-4,-1,14,1,-1,0,42,-6,2
11,-11,3,3,-3,-2,11,2,2
-9,-12,-7,-2,-3,1,21,-1,2
-7,-5,-15,-3,1,1,16,-5,2
-8,14,3,-6,-6,-10,52,4,2
-2,16,21,11,-2,2,-2,-9,2
7,-15,-11,-9,-2,-1,0,-5,2
11,-1,2,1,0,1,-6,1,2
-1,-16,-8,0,0,4,-15,-3,2
-2,-2,-5,-2,-1,-4,6,-4,2
-6,-1,5,1,-4,-10,-32,1,2
-7,-6,-2,0,4,9,27,-1,2
5,1,-2,4,-2,-6,-72,2,2
5,10,-1,-5,-2,4,73,4,2
-5,-15,4,-2,-4,-2,-11,-6,2
2,8,-4,-1,3,4,-9,-1,2
1,10,6,0,-3,-6,-65,-11,2
-1,-22,-17,-2,1,2,44,1,2
3,13,13,2,2,2,-25,-9,2
-10,5,-10,0,-5,-1,19,-8,2
-3,-21,16,7,1,2,21,-9,2
1,23,7,-5,1,-4,-10,-7,2
2,-7,2,2,2,4,19,-14,2
-8,-9,-11,4,-7,-16,-128,3,2
-12,13,-2,-9,-5,8,33,-9,2
-9,-8,-1,1,-3,-10,-33,-4,2
3,1,0,0,5,4,20,5,2
9,8,9,-2,-3,-1,3,-3,2
-4,-5,-4,-4,4,7,25,8,2
-4,-2,10,-2,-3,-1,35,0,2
3,9,-16,2,1,2,-35,-9,2
7,-7,1,2,2,4,45,-7,2
-2,3,-5,2,-3,-3,-20,13,2
2,-2,-7,7,-3,-5,-80,-10,2
1,4,6,-7,-2,0,7,5,2
-5,-4,6,0,1,-2,16,4,2
2,-2,-7,1,2,1,24,3,2
0,-2,4,1,2,4,-5,-4,2
-2,-21,-12,-1,-6,-1,13,7,2
-3,10,-3,-4,-2,-4,-25,6,2
0,5,4,-2,2,-2,-72,1,2
-1,-7,-9,0,2,6,100,3,2
-10,0,2,-2,-8,-13,-60,1,2
0,1,1,-3,-1,-3,3,-5,2
16,0,2,1,7,8,56,7,2
-8,3,-5,1,-3,1,-44,-15,2
-5,-8,3,5,1,3,-68,-7,2
-4,0,8,-1,-4,-3,-59,0,2
-12,2,-13,-5,-7,-3,10,-6,2
22,5,6,1,7,7,10,4,2
13,3,13,2,-1,0,-5,0,2
6,-12,-17,-2,-2,-3,-5,-5,2
0,1,13,-2,0,-2,-81,22,2
2,-3,-3,3,1,3,-2,-11,2
3,-13,0,-3,-4,7,54,-4,2
-1,-7,-5,3,3,-3,29,-3,2
12,9,-1,2,1,-1,-21,0,2
15,3,3,-1,5,2,-37,0,2
-11,4,-7,-6,-5,-1,89,2,2
-1,3,-1,4,-8,-9,-48,2,2
-3,-8,-10,3,-1,-7,-66,-8,2
-13,-11,-10,7,-7,-8,-19,-3,2
16,23,14,-23,10,4,-9,-4,2
4,5,6,-12,-2,11,55,-18,2
-9,-8,-20,-1,-7,-7,-24,0,2
2,2,1,-2,3,-6,-59,7,2
19,-11,-5,13,2,16,41,1,2
4,4,26,2,4,-9,-22,-6,2
-10,-27,-14,-5,-24,-9,99,20,2
-53,-35,-23,-10,-16,-18,-54,-17,2
1,14,-13,12,5,0,78,7,2
15,20,-9,4,12,11,1,-2,2
9,13,16,11,2,7,62,-19,2
18,10,2,-25,2,9,67,6,2
-19,-24,18,13,-5,-9,-71,-8,2
-14,0,-56,-44,-8,-5,6,-4,2
-10,-3,1,-3,3,-6,-24,-1,2
9,-1,37,28,0,7,52,9,2
-7,-4,-1,-16,-5,-11,-72,-3,2
-3,8,13,20,-1,-3,-47,6,2
8,10,0,-3,9,9,24,-10,2
-1,-10,-16,-3,-4,-9,-65,8,2
13,3,0,10,-3,3,-2,2,2
-25,-41,4,-9,-3,-3,29,15,2
13,37,2,-2,2,-5,-79,-10,2
-17,-19,-10,4,-8,-4,43,-3,2
9,18,5,3,5,6,64,14,2
-1,-15,-10,-3,-7,-16,-16,-10,2
19,-8,8,1,16,14,75,-3,2
-13,29,13,-1,2,-8,-65,2,2
0,-1,-13,-5,-15,-9,38,-25,2
-2,4,18,5,4,5,77,-20,2
-1,-2,-5,1,-7,-7,35,-1,2
38,2,2,-3,26,34,73,-11,2
-49,-29,-12,-5,-30,-41,31,-11,2
7,7,2,9,6,8,-47,-12,2
-10,-11,27,14,0,-2,-37,-20,2
15,11,-10,-13,1,14,82,5,2
0,8,-2,-10,9,6,-43,-1,2
4,-6,7,10,-7,-4,-7,6,2
3,5,-14,-2,1,3,2,-9,2
-1,-2,2,-3,-8,-9,-96,-6,2
10,-7,1,-10,6,5,9,6,2
-11,17,-17,10,-7,-11,-86,-8,2
-15,-25,-8,-12,0,4,78,7,2
-5,9,-10,11,-7,-8,-57,-11,2
-11,7,-5,4,-1,-1,0,-2,2
7,-10,4,0,7,18,90,2,2
13,9,6,0,3,-7,-69,-4,2
-3,-2,-9,-1,-6,-1,53,12,2
-1,0,1,4,-4,-12,-111,-8,2
5,5,6,-2,6,6,4,-2,2
-1,-2,0,-5,0,-4,-80,10,2
-2,-1,-1,0,-7,-6,90,-5,2
2,-10,-5,4,3,4,9,-7,2
1,4,15,-4,1,3,63,12,2
-11,-5,-5,-1,-4,-9,-46,1,2
6,3,6,1,2,3,-33,4,2
-6,6,3,2,2,3,84,-7,2
-10,-8,-14,-12,-7,-1,32,-24,2
11,2,9,1,-3,-11,-56,-10,2
-9,6,-4,2,0,6,58,0,2
4,-4,-34,-1,3,1,-24,10,2
10,9,16,-5,-1,-1,25,7,2
-10,-2,-18,-4,-7,1,22,-6,2
8,-1,-1,-1,1,2,-7,0,2
-15,-7,3,-4,1,-4,-28,-3,2
-2,3,13,-4,-8,-9,-35,-4,2
-5,-15,-4,-1,-7,0,44,6,2
-5,3,-4,-4,3,1,8,-12,2
8,23,12,-8,5,6,66,11,2
-4,0,-11,8,1,-10,-118,-3,2
4,3,5,2,-1,8,49,5,2
-3,-12,-8,1,-6,-9,-18,14,2
7,10,5,-7,5,0,-52,1,2
-1,-28,0,4,-3,0,8,0,2
3,12,11,1,0,1,29,-5,2
9,-16,-21,1,1,-1,-7,-5,2
5,0,2,-1,2,6,61,11,2
3,14,-5,3,0,-8,-111,1,2
-13,-31,-14,2,-2,2,23,-9,2
1,7,15,0,-2,-4,15,2,2
-3,-1,3,2,-1,2,-10,-12,2
4,8,-1,-3,4,2,52,12,2
-3,2,-3,-11,-3,-2,16,4,2
-1,6,5,3,-2,1,93,17,2
-2,-29,-13,21,0,4,-13,5,2
1,24,0,-17,-2,-5,-37,0,2
9,8,-4,-1,1,9,98,5,2
-6,1,1,2,-7,-8,-50,-5,2
1,3,3,3,2,11,-11,0,2
7,-10,-1,3,5,8,62,8,2
-5,1,-1,2,5,-4,-14,-3,2
-2,13,0,-2,-5,-4,-22,-15,2
10,-8,-1,-3,-5,-4,-66,-5,2
-25,-22,-3,2,0,1,51,-4,2
1,12,0,-1,2,-3,-41,-4,2
3,-2,9,6,0,12,93,3,2
0,8,1,0,-1,-8,-82,-10,2
-2,3,-2,-3,0,3,87,6,2
-1,-13,-10,-7,-2,4,45,2,2
-6,-2,1,3,-1,-12,-118,-5,2
-3,5,6,-7,-1,-1,31,0,2
-2,-14,6,-6,1,0,-52,0,2
-5,0,-3,9,-6,-1,48,-2,2
0,1,4,1,-2,0,-37,-10,2
5,-1,-14,-5,-3,-1,-9,-18,2
-2,2,2,-3,2,0,11,-6,2
6,11,10,0,-4,0,-64,-9,2
-14,-10,-7,-1,-1,-1,63,-13,2
2,-1,0,3,-7,-13,-15,-9,2
6,20,-6,4,0,2,-44,-10,2
-8,-35,-10,0,0,1,67,-11,2
0,2,-7,-4,-1,-2,-2,0,2
-3,-3,1,-5,3,5,14,-4,2
-3,4,-3,3,-2,1,-49,-18,2
1,5,-2,-3,0,-8,-39,3,2
6,-5,7,-3,1,6,53,5,2
9,3,4,4,0,-4,-89,-7,2
-10,-2,-6,-6,-5,-6,15,5,2
-2,9,6,6,-1,-4,-105,-1,2
17,-2,2,0,1,4,1,2,2
-7,-14,-13,-8,-2,5,56,-5,2
7,11,17,5,2,4,31,-16,2
-5,14,-4,-1,-4,-5,-58,-1,2
-3,0,-5,-7,3,1,-23,8,2
2,2,5,-1,3,4,44,-11,2
5,4,6,2,-4,-6,-8,4,2
-12,-21,-10,-1,-6,-1,42,1,2
1,3,5,0,3,-1,4,-12,2
6,6,-8,-6,1,-5,-54,-1,2
-6,4,16,-3,-2,2,61,8,2
8,4,7,2,3,11,81,-4,2
-6,-12,-9,9,-6,-4,-61,-1,2
-5,15,6,0,4,2,37,2,2
6,-4,-7,-3,2,3,16,1,2
12,8,4,-2,3,3,30,8,2
-8,-12,-8,-1,-3,-1,-13,-2,2
1,0,5,1,-3,-7,-46,5,2
-4,-5,-8,2,-1,1,1,-3,2
-4,-8,-4,-2,-1,-1,-12,3,2
-5,-19,4,2,5,0,16,12,2
5,29,12,-2,0,4,32,-3,2
2,-5,-13,-3,-9,-12,-9,4,2
-7,-3,12,1,-2,-1,14,-4,2
3,-7,-5,0,-4,0,-13,-15,2
-6,2,18,-3,5,4,67,-4,2
-12,-21,-35,-7,-9,-3,20,0,2
8,10,7,0,3,2,-27,-6,2
-4,5,1,-7,-5,4,85,-19,2
-2,-15,-8,4,0,5,52,-6,2
2,6,5,-3,3,-2,-56,-9,2
2,-6,-3,4,1,-1,-58,-7,2
1,4,-4,2,1,4,22,8,2
-4,0,-2,-5,-2,-1,-20,-12,2
-4,-3,1,1,0,0,-11,-4,2
-2,-3,-3,-2,-2,0,50,10,2
-11,8,-2,2,-1,-4,-68,7,2
-2,-12,-1,-1,-2,4,38,-3,2
3,-2,7,5,2,0,-33,-9,2
-10,-10,-8,2,-4,-7,36,2,2
7,21,-9,-3,0,-3,12,-10,2
-4,-8,-7,-2,-4,-3,-5,14,2
2,-1,5,-1,2,-4,-33,-8,2
5,8,-3,-6,1,4,4,1,2
-1,-7,3,1,2,1,-14,-3,2
-3,-17,-4,-2,-4,0,52,14,2
6,6,4,-2,-3,-4,6,-2,2
0,-5,0,4,2,9,42,-3,2
-7,2,5,-1,-4,-4,-31,9,2
-3,7,-4,-6,-2,-5,-9,-4,2
-8,-23,3,2,-1,2,3,4,2
4,16,-1,1,0,-2,-29,-4,2
8,10,4,-2,0,2,52,6,2
-4,-5,-11,0,-1,-8,-123,1,2
5,6,-2,2,0,10,73,4,2
-10,-8,0,-7,-3,-4,-7,-5,2
6,-4,8,2,-4,-6,-28,-10,2
4,2,7,0,-3,-3,-2,2,2
-4,-4,-8,0,-3,-11,-97,-3,2
8,6,5,0,7,3,-17,-6,2
-15,-17,-14,4,-6,2,82,-4,2
-5,9,30,-6,-6,-8,1,-5,2
-3,-10,-17,-5,0,6,47,-8,2
5,3,1,1,-3,-3,-19,-8,2
11,3,1,-2,2,-1,-50,-7,2
-2,7,-2,5,2,-1,-3,2,2
-4,-23,3,0,1,0,-6,7,2
-9,-11,-3,-1,-3,-2,-7,-10,2
1,1,-7,-4,-1,2,12,-4,2
6,-6,-4,1,5,7,55,-4,2
-2,9,4,0,1,-3,-19,2,2
3,13,-13,-5,-4,1,-20,6,2
-8,-10,-4,-2,1,-4,-27,-3,2
2,-2,-6,4,7,3,-46,-8,2
-2,16,8,-4,-4,-2,27,3,2
9,-2,5,8,2,-2,-17,13,2
-4,2,1,-5,0,4,98,4,2
7,4,-10,-1,-3,-6,-59,-1,2
-9,-3,3,-2,1,0,12,-1,2
-3,-3,-1,-2,-2,-1,-10,6,2
5,9,5,1,2,5,4,-7,2
-2,-9,-4,-1,-1,4,57,3,2
5,3,-4,1,1,3,22,-4,2
-3,1,6,2,-5,-7,-25,10,2
-10,-4,2,0,-7,-4,-16,-17,2
-12,-18,-13,2,-1,1,-23,-5,2
10,14,6,-4,3,1,7,3,2
-2,-5,1,0,2,4,0,-1,2
13,-6,2,-1,4,3,40,2,2
1,22,12,-2,3,2,56,14,2
-9,-25,-26,-5,-6,-4,-91,-16,2
0,16,4,-3,-5,2,25,-6,2
3,-3,-3,3,-4,-3,-25,6,2
0,0,3,0,0,3,17,-6,2
9,-1,3,1,5,1,19,-2,2
-13,-7,-8,0,1,1,28,-6,2
-4,-8,10,3,-7,-8,-81,11,2
5,9,-12,-6,-1,0,-3,-5,2
3,4,4,-3,4,5,71,12,2
2,4,2,7,-3,-8,-93,-8,2
-7,-13,-20,3,3,7,48,-3,2
-8,4,2,-5,-2,-5,-40,13,2
-3,6,0,3,-3,-3,-44,0,2
11,7,3,2,0,1,15,-2,2
-6,-3,5,-3,-2,-5,11,2,2
7,-2,-1,-5,-2,-4,-25,1,2
3,1,0,-2,1,3,33,-1,2
-6,0,-10,-3,-1,2,52,0,2
2,6,11,0,5,-1,-32,0,2
-4,2,5,4,-8,-9,-61,-9,2
-10,-24,1,-1,-5,-5,-36,0,2
7,-4,3,3,1,9,37,-1,2
-5,8,0,-4,-2,-5,-24,-8,2
-1,-5,-2,-2,2,2,29,-3,2
-1,-8,1,3,3,-1,-8,-7,2
-6,0,-15,-5,-5,-7,-37,2,2
10,30,17,0,-1,1,82,16,2
-2,-7,-5,0,-5,0,-33,-9,2
1,14,3,1,-1,-7,-85,2,2
-7,-12,1,-3,1,3,89,-4,2
-11,-18,-21,-1,-2,-3,-36,-16,2
5,13,0,-1,-1,4,32,-10,2
1,12,1,-3,-2,-3,27,4,2
-7,-15,-4,1,-2,-3,-32,-6,2
0,3,1,1,-1,0,24,9,2
1,-13,-6,-4,2,0,-18,-2,2
-1,-5,-1,5,-2,2,45,9,2
-7,-11,-6,-1,-3,-5,-53,-4,2
6,-2,2,1,-2,8,-2,-5,2
0,-6,-7,-2,2,1,30,2,2
5,13,2,-2,-3,-2,17,3,2
-8,-4,-1,0,-2,-2,-36,-6,2
19,13,9,0,5,4,-34,-3,2
-6,-2,-2,3,-4,-1,55,2,2
-11,10,4,0,-3,-6,-3,-19,2
-2,-4,-9,1,1,-2,20,-5,2
0,-8,-3,-1,0,-3,-29,-12,2
0,12,5,-2,4,0,-23,-5,2
0,-7,-1,-2,-4,0,-20,-7,2
6,7,13,1,2,4,37,3,2
-5,-2,-19,-5,-4,-4,-17,-12,2
-1,-21,-2,-3,3,1,82,4,2
2,29,7,-1,-5,-7,-24,-5,2
2,-11,1,-3,-2,3,22,-1,2
-6,-4,4,1,1,1,-12,4,2
4,6,0,-1,-1,-2,24,4,2
-10,-14,-10,-5,6,5,-3,-16,2
4,10,-6,3,-6,-12,-44,6,2
2,15,8,2,-1,-1,-9,14,2
-2,-8,-7,1,-1,-4,-42,-4,2
5,3,0,-2,3,5,39,13,2
-1,0,3,0,4,8,37,6,2
-3,-11,-1,-3,-2,-3,-69,-1,2
3,5,2,-1,-2,5,60,-4,2
2,-2,-1,2,1,3,-11,7,2
-5,-2,1,-3,2,-1,14,3,2
-3,-2,-3,-1,-4,-6,-31,1,2
3,2,15,-2,1,2,-21,3,2
-2,-4,-3,-4,-4,-1,81,4,2
-9,-8,-17,-1,-5,-6,-17,-4,2
4,5,1,6,0,0,-16,-1,2
7,-11,-2,1,0,-5,-37,-1,2
3,-4,1,2,5,5,-60,10,2
-9,12,4,-4,-6,-2,42,17,2
-2,-7,-8,-4,-3,2,117,2,2
-4,-5,-12,0,0,0,-48,1,2
19,9,4,2,7,7,-2,4,2
-6,-8,-1,-2,-3,-5,-15,-1,2
-3,-2,-3,1,1,1,31,-2,2
-2,2,3,-2,-3,-1,17,-2,2
3,-2,5,-2,2,-4,62,1,2
5,7,9,-1,-1,-6,-74,2,2
-11,-8,-3,1,-5,-6,-25,-7,2
0,1,-5,-3,1,1,-9,-2,2
-6,-4,-3,-2,-1,0,18,-1,2
9,4,3,1,-1,-1,-7,-6,2
5,-5,1,-1,4,11,72,-2,2
-16,2,-5,4,-10,-17,-105,-11,2
-1,-6,-2,-3,1,3,-6,-4,2
-2,8,1,2,1,3,58,-8,2
4,-7,-11,-2,1,5,20,-5,2
-12,-12,14,-5,-5,-6,27,8,2
-5,-9,-7,3,-2,0,-26,-10,2
7,4,7,1,5,8,39,2,2
6,10,8,-5,1,0,30,-7,2
2,-2,-6,-1,0,-7,-107,-8,2
-5,9,-5,-1,-2,-2,12,-8,2
-3,-10,-1,-1,-1,-2,25,-5,2
-3,1,5,1,-3,-4,-52,-5,2
-2,1,-8,-5,1,8,86,-8,2
-4,2,6,2,-6,-10,-40,-1,2
-1,2,-6,-2,0,1,-19,-7,2
-6,-5,-2,-3,-1,0,-27,-5,2
2,5,7,-7,-3,-2,99,20,2
-1,-3,-1,1,4,6,46,-6,2
-7,-7,-6,-1,-6,-11,-40,-9,2
4,5,5,2,0,-1,29,6,2
11,7,0,-2,6,4,4,9,2
-17,-7,2,-5,-5,-6,-16,4,2
6,-12,-26,-2,0,4,-1,2,2
2,9,14,0,-2,0,10,16,2
-1,-13,-25,3,1,5,-23,-8,2
0,-7,14,0,-1,-6,-20,2,2
8,12,-2,0,-3,5,11,1,2
-15,-13,-14,-6,0,-2,56,-3,2
2,13,15,6,0,-3,-62,-19,2
4,-12,-7,-8,-2,3,92,7,2
-7,-6,7,2,1,0,-18,-8,2
1,-5,-7,1,-2,2,8,-5,2
8,2,6,-1,5,5,-38,-7,2
-8,-2,-13,-2,-3,-3,-14,0,2
0,-1,8,-4,0,2,0,-10,2
-1,5,0,-1,3,4,46,-8,2
-3,-7,-2,2,-1,-13,-84,-14,2
11,6,3,2,-1,4,-20,2,2
1,12,2,-1,-2,3,44,-5,2
-1,0,4,4,-1,-6,-69,-5,2
1,-19,-23,-2,1,2,-16,4,2
-6,6,11,1,-4,-6,-65,-5,2
-1,-10,-10,-4,-1,0,7,3,2
3,-22,4,3,2,2,16,-16,2
-5,28,15,-4,-4,0,56,2,2
6,11,-8,-1,2,3,12,2,2
-3,-11,-4,3,2,-1,-83,-8,2
-2,0,0,-4,-3,-1,3,7,2
0,0,3,-2,3,6,42,-4,2
-3,-10,-2,3,-1,-2,-5,5,2
2,9,11,-4,3,2,80,-1,2
-3,2,-7,0,-3,-5,-54,1,2
-2,-4,1,1,0,1,27,1,2
0,4,-7,0,-1,0,-34,5,2
5,0,4,0,1,4,57,10,2
-9,0,-7,-1,-8,-12,-36,-4,2
-1,4,7,-3,2,1,40,1,2
-6,-14,-15,-5,-2,-3,-15,-13,2
6,-3,-14,5,1,0,-21,11,2
3,18,7,-1,2,-3,11,2,2
-1,-3,2,-4,-2,-1,28,-5,2
-1,1,0,2,-2,-3,-10,1,2
-1,0,4,1,-1,-4,-31,-5,2
-1,2,-6,-4,-2,2,-30,-5,2
-2,-15,-13,-5,-5,-3,42,4,2
3,15,4,0,2,5,16,-4,2
3,2,5,4,3,5,40,6,2
-10,-4,-3,0,-4,-13,-53,-17,2
-2,-2,1,-2,-1,-1,-32,18,2
1,-13,1,1,-1,-2,9,1,2
0,11,0,-2,-3,-2,29,-1,2
12,1,1,-4,3,4,11,-4,2
-5,1,-2,1,-1,-5,-23,-3,2
1,-6,-5,-2,-1,3,26,-1,2
1,3,10,1,1,-4,-37,-4,2
-12,-35,-30,0,-4,0,46,6,2
2,0,16,1,0,0,-39,-4,2
3,29,-1,-1,-5,-2,7,2,2
-1,-15,1,-1,0,0,8,-4,2
4,5,3,-2,0,-2,-10,12,2
-6,-18,-15,-6,-1,2,-2,-7,2
4,-4,1,0,2,-1,9,0,2
-2,13,-4,-1,-5,-4,-62,-3,2
2,3,20,7,4,5,31,0,2
6,2,0,-3,3,-1,-5,-9,2
-3,-6,-1,0,0,2,-3,1,2
-8,-7,-5,-2,-6,-2,-17,-4,2
3,4,1,1,1,6,-7,-10,2
1,15,-1,-2,-1,0,12,-4,2
-3,-8,-2,2,1,-1,-1,-7,2
-12,-20,-6,-6,-2,-1,24,3,2
5,4,1,-2,2,3,29,4,2
-5,-1,6,-4,-4,0,-2,1,2
-2,4,9,1,-2,0,39,-3,2
1,-11,-9,4,0,-1,-16,5,2
3,10,12,1,1,1,-25,4,2
3,3,-3,0,2,3,47,5,2
-8,-6,-5,-2,-4,-3,-33,-7,2
1,8,12,0,-1,0,18,4,2
-9,-3,-3,-3,-7,-4,8,2,2
-1,-11,-7,3,4,-1,-30,-3,2
7,5,1,-3,1,0,34,4,2
-12,0,1,2,-6,-10,-13,-2,2
1,-2,-4,-4,0,-1,14,2,2
-4,3,6,1,-1,6,80,-5,2
1,-4,-2,-1,-4,-8,-46,3,2
10,-3,2,0,1,1,18,1,2
-6,4,-9,-2,-1,-3,-14,-20,2
1,2,4,-2,-1,3,-27,-1,2
-7,-1,5,-1,1,2,35,-4,2
1,3,-2,2,-7,-10,-55,-6,2
2,4,0,2,2,4,-11,-1,2
2,-3,-2,0,1,-2,-20,-7,2
-3,-4,8,2,-2,0,48,-6,2
5,4,-21,-4,4,6,-26,-2,2
1,20,25,-4,-5,-7,7,-2,2
-7,-26,-27,-5,2,0,-5,-1,2
-2,10,3,-5,-7,-6,-19,0,2
0,-2,3,1,-1,2,35,11,2
9,8,3,3,3,2,-33,-10,2
1,-2,-7,-3,-7,0,37,-5,2
-7,-15,-8,-1,2,-1,-40,0,2
3,3,16,1,3,1,-7,0,2
-4,-3,-6,-5,-1,3,64,2,2
1,-2,4,3,-2,-7,-38,5,2
2,10,-1,0,0,2,-43,7,2
5,5,1,-2,1,3,75,-4,2
0,-8,-2,2,-2,-8,-54,6,2
3,9,1,-2,5,3,44,-6,2
-5,-5,3,-2,-2,-8,-42,0,2
6,4,0,1,-2,2,24,2,2
-1,-5,-3,2,-2,2,-20,-1,2
-3,-8,-2,-1,-3,-4,-2,3,2
6,1,-26,1,2,0,-1,4,2
3,12,6,-2,-1,-1,19,-14,2
-3,-19,-9,-2,-1,-1,-25,3,2
-9,1,2,0,-2,-8,-53,11,2
5,-6,4,3,1,6,33,-8,2
1,-5,-10,0,-2,3,6,13,2
-2,13,-1,-4,-2,-1,30,-11,2
-11,20,0,-4,-2,-1,-70,-10,2
1,-3,-6,2,0,1,48,6,2
-5,-6,11,0,1,-4,-55,-3,2
1,-6,0,-4,-2,0,-4,-2,2
8,3,7,0,2,2,32,-3,2
-4,-1,-3,0,-2,-1,-40,-14,2
-6,-20,-5,5,0,0,-25,-4,2
2,-4,-2,1,3,2,18,-1,2
-1,3,4,-6,-2,1,5,1,2
3,6,-1,-2,-4,-3,-1,9,2
12,7,8,4,4,5,53,-3,2
-4,-5,10,0,-3,-5,-66,3,2
1,0,-10,1,1,3,26,1,2
8,4,6,1,3,3,8,3,2
-3,6,2,-2,1,3,-8,-23,2
-2,-9,-2,2,3,0,59,7,2
3,7,-9,-3,-3,-3,-22,-3,2
-6,-10,3,0,-3,-6,8,4,2
-1,-5,0,0,2,0,-2,7,2
7,6,1,0,-3,0,-5,-2,2
-14,-9,6,-1,-6,-8,-8,-15,2
4,-5,-2,0,5,6,-19,4,2
-5,-3,-13,0,-4,0,-15,15,2
-3,-17,4,-1,-1,-6,-19,9,2
-9,-14,-21,-6,0,-2,6,11,2
0,8,11,2,-2,-4,3,0,2
-2,13,1,2,-2,1,-34,5,2
13,7,0,-3,2,7,35,2,2
-3,2,0,-5,-6,-8,-8,-5,2
-9,-19,-15,0,-1,4,11,-9,2
2,-3,-1,-1,1,2,50,8,2
9,12,7,3,0,-2,18,2,2
-7,-4,-8,2,1,-1,-50,-6,2
-4,16,2,-7,-9,-7,23,5,2
8,-2,6,1,1,3,16,-1,2
-11,-1,-5,-1,-3,-1,52,-7,2
5,1,9,4,4,-1,7,-4,2
5,2,3,0,5,-1,-62,-3,2
-4,4,-3,-2,-6,-3,-8,-11,2
-1,-2,-10,-2,1,1,17,2,2
-2,-10,1,-3,-5,0,38,0,2
-8,-11,-7,-1,-2,-3,8,-4,2
-2,-1,12,-4,-3,-3,-27,-13,2
-5,-6,-1,-3,-2,-2,27,-5,2
11,-2,-5,2,3,3,-8,-2,2
9,15,12,4,5,10,56,-2,2
-7,-9,-10,-2,-5,-12,-39,-7,2
-7,1,3,0,0,1,1,-7,2
2,5,0,-1,0,5,34,-11,2
-6,-11,-11,-2,0,-2,-5,-2,2
2,0,-5,-1,0,2,19,-1,2
2,3,-2,-7,1,3,-1,-12,2
2,-3,4,7,-1,1,29,2,2
2,6,1,-1,-1,0,-44,0,2
-3,-6,-3,-1,-2,0,53,-6,2
-6,-18,-5,-3,-3,-5,-80,-6,2
6,35,0,-5,-2,-2,-31,-6,2
-2,2,4,1,-1,0,30,-2,2
-6,-13,-7,0,-1,0,-19,-6,2
3,0,-6,0,2,2,-5,-7,2
-9,-12,3,-1,-4,-1,22,-3,2
3,8,4,1,-3,-3,-6,0,2
-4,2,1,0,2,-1,-66,-4,2
-4,-3,-7,-1,-3,-6,-9,2,2
7,4,-2,-2,3,1,48,4,2
3,-1,-1,-4,-2,1,28,-1,2
-10,-22,-3,-1,0,4,50,-3,2
-7,6,-7,-2,-4,-6,-17,-9,2
4,0,10,5,3,-2,-64,-4,2
-3,-10,-12,-2,-5,-6,9,3,2
-5,1,9,-3,-4,-3,-24,5,2
4,-9,-18,-3,3,6,45,13,2
-7,-5,3,-2,-6,-5,-25,4,2
8,19,2,5,0,2,31,0,2
3,-9,-13,-6,-3,-6,-92,6,2
3,17,0,-1,3,3,17,-3,2
-1,-19,14,0,0,3,35,8,2
-1,-2,-8,-3,-4,-3,-88,-1,2
2,3,10,4,-1,2,32,13,2
3,6,5,2,2,-2,-36,1,2
-2,-5,-8,-2,0,0,34,-1,2
4,-2,5,-1,0,2,21,-5,2
-2,6,-3,-3,-2,2,68,-1,2
-15,-13,1,1,-4,-14,-122,-7,2
3,1,0,-5,1,3,12,6,2
-3,-5,2,2,-2,1,36,-6,2
1,8,-3,3,1,3,57,3,2
4,-2,-1,2,-3,0,18,-6,2
-10,-4,-6,-2,-3,-6,-60,-12,2
-7,-9,-1,0,1,-1,-27,-2,2
9,26,8,0,-3,-2,2,-3,2
2,13,18,-1,-1,2,22,-4,2
5,3,-9,1,2,1,-21,5,2
-4,-22,-2,0,1,5,46,-6,2
4,6,-5,4,1,-6,-40,-9,2
-14,-25,-8,-7,-4,-1,-13,-4,2
11,23,11,-1,1,3,-15,5,2
-3,-3,3,0,0,0,28,-1,2
3,0,6,3,1,-2,36,4,2
-1,10,2,1,-3,-4,-47,0,2
-2,-15,-4,1,2,3,32,1,2
3,7,-5,-2,5,3,-27,-3,2
-5,-8,-4,-3,-6,-4,18,-3,2
4,-5,0,6,2,1,21,3,2
-3,-7,-2,-2,-2,-1,-7,-7,2
-2,4,1,1,1,3,0,5,2
1,3,-1,-1,2,2,-14,-5,2
1,-4,-6,-8,-4,-6,44,3,2
-3,3,7,-2,-1,-1,-46,-12,2
-5,-14,2,1,-1,-3,-27,2,2
4,-3,-11,1,0,2,-6,-4,2
4,1,-1,0,1,3,30,2,2
4,15,5,2,2,-1,26,2,2
-6,-4,7,-2,-5,-12,-66,-3,2
1,18,-7,-3,3,5,-24,2,2
0,-6,6,1,0,2,49,-3,2
-4,3,-6,-4,-2,-6,-22,-7,2
-2,-9,-8,2,-4,0,30,-3,2
-1,-5,-3,-1,0,-2,-14,-7,2
4,6,-2,-3,3,5,-19,-3,2
3,3,5,1,-1,-2,8,-4,2
0,6,-3,-1,-1,-1,33,-8,2
2,-7,7,2,-2,-2,-20,-6,2
-4,-4,-2,0,-1,1,45,-12,2
4,5,-2,0,0,2,58,11,2
4,6,2,1,-1,1,-18,3,2
1,-7,0,-4,2,4,53,8,2
-3,-4,2,-2,2,-3,-44,-7,2
-4,-7,-6,-3,-4,-8,-6,9,2
-7,10,6,3,-2,3,-13,-6,2
1,-1,1,2,0,-1,-13,1,2
1,-1,-12,1,2,3,7,3,2
0,6,1,-1,-1,0,14,-5,2
0,-4,-7,2,3,-4,-72,11,2
-10,-30,-6,2,-4,0,-5,3,2
7,37,-2,-13,-3,-2,-51,-6,2
-6,-16,9,2,-4,4,39,4,2
3,6,-2,-3,-1,2,25,4,2
2,2,-5,-1,0,-2,-7,-2,2
-2,-8,7,5,2,2,5,5,2
5,-3,-9,-3,0,0,22,6,2
-6,1,5,0,-1,-7,13,-1,2
1,-5,-3,-1,-1,-1,-7,1,2
-5,-6,-3,0,-6,0,16,4,2
-1,4,4,-1,1,2,4,1,2
4,-1,0,3,5,1,-22,4,2
2,8,4,-2,-2,-1,9,-1,2
-6,0,6,2,3,2,31,-11,2
-4,-4,-7,2,0,1,-5,0,2
-3,-3,8,-3,-5,-5,-56,-2,2
1,2,0,2,2,6,-10,-2,2
5,-4,-2,0,2,-1,12,9,2
-2,-1,2,-2,1,1,16,-1,2
6,1,-4,-4,-2,1,-19,1,2
-6,1,2,-1,-3,2,37,-3,2
-3,-5,1,0,1,2,-45,-7,2
0,-2,-4,-1,1,-3,3,-4,2
3,3,-3,0,0,1,37,5,2
-9,-7,-4,-1,-1,-3,6,1,2
3,-6,3,0,0,-1,19,6,2
-7,-3,-11,-7,-6,-7,-43,-4,2
1,1,-13,-1,-1,3,58,3,2
-7,6,4,-4,-3,-1,-34,4,2
4,5,10,7,1,0,14,-5,2
-5,-4,1,1,-3,-3,-64,-5,2
-2,-11,-8,-1,-3,0,12,-12,2
-1,0,8,0,2,-4,-20,-13,2
-2,11,-7,-2,-4,-4,-2,4,2
4,5,6,3,5,7,9,-2,2
1,2,2,0,1,0,24,-9,2
-5,-2,4,1,-3,-4,-10,-1,2
2,-7,-3,-7,-2,-2,-18,-4,2
0,0,0,4,2,0,-21,-11,2
0,1,-3,-1,0,1,14,5,2
4,0,10,3,0,2,61,3,2
-7,-6,-6,-6,-4,-8,-107,0,2
-1,-1,-2,-4,-4,-1,55,3,2
-6,-6,-2,-2,-3,2,7,-5,2
3,-1,-3,2,1,2,-9,2,2
-2,-2,-4,-5,1,0,4,7,2
4,-10,-2,2,2,0,-9,2,2
-5,-5,-2,-1,-1,-4,-16,6,2
9,24,-3,-4,-5,-4,30,3,2
-6,-25,11,4,0,-1,-8,-1,2
-4,-4,-1,-1,-2,1,33,-1,2
5,-2,0,0,-2,-3,-2,4,2
-2,1,-3,-7,0,-1,13,1,2
5,7,0,0,2,2,39,0,2
-8,10,4,-1,-1,-6,-37,-3,2
3,-3,2,2,-2,3,36,-1,2
-2,-1,-7,0,-1,-6,-41,5,2
4,-1,-5,0,-2,1,37,2,2
-6,-6,-4,-8,-3,-2,-30,-10,2
-7,0,7,2,-5,0,16,-8,2
1,-6,-4,0,1,-1,22,-6,2
0,0,1,-1,-2,0,22,-5,2
1,5,-1,1,-2,-2,-27,12,2
-1,-5,-12,-1,-2,-6,-28,-8,2
0,-4,-7,-4,1,1,6,-7,2
-6,-2,1,3,0,-3,-9,0,2
7,0,-8,0,3,3,11,4,2
-4,7,-6,1,0,-1,6,-1,2
-1,-1,20,1,0,0,-53,-2,2
3,24,-5,-5,0,-1,16,-4,2
3,9,5,3,-1,-2,-31,-1,2
-6,-27,-2,-1,-3,-2,11,-3,2
5,7,-4,0,-1,0,-26,1,2
0,-2,0,-1,3,2,7,1,2
-3,-2,3,2,-3,0,25,-2,2
3,7,0,-9,3,3,-91,-6,2
-1,-34,-28,3,-3,-1,4,3,2
-1,13,1,-1,-3,-2,-6,-4,2
-1,-3,-4,-3,1,1,27,-6,2
5,5,-3,1,0,0,33,8,2
-3,3,3,-1,2,3,-1,-6,2
-5,-12,-5,-1,-5,-1,-4,-18,2
1,-6,-5,-1,-5,-5,-6,7,2
-4,5,3,0,-2,-3,-22,14,2
-2,3,2,-4,-1,-2,-7,4,2
7,-7,-1,1,2,3,17,5,2
-9,1,2,2,1,-1,2,-7,2
2,-1,6,-2,0,1,34,1,2
2,2,-7,-1,-5,-3,1,0,2
-2,-11,6,-2,-4,1,4,6,2
4,23,-3,-5,-2,-1,-5,0,2
0,2,8,0,1,1,27,1,2
-2,-10,-1,2,1,2,-2,-3,2
5,4,-13,-2,0,-3,-4,1,2
-3,-8,18,0,-2,5,62,9,2
1,-6,0,3,-3,-8,-67,4,2
5,14,1,-1,0,-1,18,-5,2
2,-4,-4,-2,-2,-1,-12,1,2
4,-2,-1,0,3,0,32,-9,2
1,6,-2,2,0,3,37,-7,2
-10,-27,0,-9,-2,-3,-21,-12,2
-1,18,-15,-5,-5,-6,-35,-3,2
-5,-4,-5,-1,-1,0,22,0,2
1,-1,-10,-3,-3,3,12,6,2
-1,8,-1,0,0,0,-7,-8,2
-2,-7,6,2,4,7,38,4,2
-1,-11,3,-2,-3,-5,8,1,2
0,3,-15,2,-2,-5,-66,-6,2
8,-6,1,1,0,3,48,5,2
-26,-20,-4,-2,-6,-7,-43,4,2
2,-4,-6,1,2,-1,-32,-3,2
3,2,7,2,4,6,19,-7,2
-2,1,6,0,-4,-4,17,-1,2
1,2,-10,-1,0,-1,-30,-10,2
4,-1,-3,1,-5,-1,-6,-2,2
-4,1,2,-2,1,3,64,-17,2
-1,-6,-2,0,-1,-2,-74,3,2
2,14,7,1,1,2,40,-6,2
-2,-2,-3,-1,0,-1,-43,1,2
2,-2,1,0,-1,-2,56,-3,2
1,0,0,1,1,3,28,1,2
-1,-6,-17,1,-3,-6,-43,0,2
0,0,10,2,1,1,-12,-6,2
2,11,8,-2,-4,-1,-20,5,2
-3,10,-1,1,2,5,34,-4,2
-3,-11,5,11,2,-2,-43,1,2
2,5,-8,-15,2,0,-9,5,2
4,-6,-2,2,-2,5,24,11,2
-8,12,-1,3,-6,-11,-90,-6,2
7,4,-3,-3,1,4,27,-2,2
5,-5,2,3,3,-3,-51,1,2
-6,-11,1,-3,1,10,93,1,2
7,8,8,-7,-2,-1,22,2,2
3,-5,-5,-12,1,7,47,-3,2
-5,13,10,3,0,3,43,-13,2
-6,-3,-1,11,-4,-4,3,-8,2
7,-7,-5,-15,5,0,-52,5,2
-26,-18,-10,-6,-14,-16,-46,-6,2
2,2,0,9,-1,0,-20,-16,2
2,-3,-8,-9,3,1,-17,-2,2
-8,0,-2,1,-5,-6,25,9,2
16,3,15,20,7,1,21,2,2
-13,-22,-32,-14,-2,-7,-28,15,2
6,20,23,11,4,1,44,1,2
-3,-9,-14,-24,-11,-8,-68,-9,2
8,5,12,-10,4,6,36,2,2
1,-26,-14,-6,-3,1,15,1,2
27,32,23,13,12,10,-51,1,2
-14,2,-1,3,-4,-9,32,-1,2
-24,-18,-9,-6,-19,-16,-80,-1,2
9,3,12,16,5,10,-47,-3,2
-5,-10,-15,7,3,9,44,10,2
5,-10,11,-2,1,1,10,-7,2
28,44,11,3,20,12,-68,-4,2
-55,-25,-18,-16,-32,-25,-1,-1,2
0,-10,-12,-4,-10,-15,-76,7,2
9,-4,6,17,9,9,17,0,2
-2,-5,1,-1,7,2,58,-11,2
18,26,7,-14,13,12,59,10,2
-4,-5,9,-14,-5,-7,-15,-4,2
-9,-6,-13,6,-6,-1,12,1,2
-4,-6,-10,-14,-4,-1,12,-1,2
10,-2,-1,-4,3,0,-10,0,2
-17,7,11,-13,-12,-9,-21,-13,2
16,9,8,-1,7,10,38,-3,2
-1,-11,7,0,0,0,11,-4,2
-2,14,-22,15,-3,-7,-37,10,2
10,-10,-4,7,7,11,69,8,2
-43,-24,-22,-4,-31,-52,-65,6,2
9,8,7,8,8,34,127,2,2
-4,-9,5,-1,-3,-14,-51,1,2
3,-1,-16,-3,-4,-4,-113,-2,2
8,19,13,7,15,22,88,3,2
4,-4,-3,-2,-3,2,101,-4,2
4,7,8,0,0,-4,18,2,2
3,-11,-16,-5,4,6,3,-4,2
2,16,1,15,-3,0,-22,-9,2
10,24,10,-3,-1,-12,-68,12,2
-16,-18,-4,-7,-2,13,40,-24,2
-6,11,22,19,-2,-8,-62,-7,2
5,-28,-13,-16,5,8,65,13,2
-4,0,-6,-2,-1,-9,-101,13,2
-6,25,5,3,-5,4,105,21,2
-4,-7,-5,-7,3,9,-59,-3,2
7,20,20,10,-2,3,70,-8,2
-6,-21,-13,4,5,-1,-96,-20,2
-7,-15,11,-1,-1,3,109,2,2
-17,2,-5,-3,-7,-14,-36,-4,2
23,21,3,10,11,10,-103,4,2
-25,-21,-11,-18,-17,-25,26,10,2
17,17,9,3,13,16,107,-16,2
-19,-15,-9,-6,-19,-24,62,-9,2
-1,-4,-8,-2,1,8,-2,-6,2
-4,7,0,-5,0,-1,-10,-7,2
18,2,11,2,3,-1,-62,13,2
-7,-13,-8,-8,-1,4,24,3,2
-3,-3,0,17,-1,5,89,-3,2
-3,-15,4,-3,-2,-8,20,1,2
13,14,-4,9,9,-1,-94,0,2
12,19,-2,-8,-9,7,-24,6,2
-14,-19,-14,-1,7,6,-55,-14,2
-6,11,14,-1,-18,-21,2,-12,2
9,-3,-3,11,6,13,-37,-15,2
19,-5,6,2,10,1,-8,15,2
-18,-1,-8,-11,-15,-25,-83,-16,2
15,2,4,3,11,12,20,7,2
-15,-7,-13,1,-3,0,52,-9,2
-4,6,5,-8,-4,-16,-79,-3,2
39,7,11,1,8,20,76,-17,2
-9,-16,-2,12,5,0,-49,-22,2
-13,0,32,-19,-16,-8,-32,-6,2
3,-2,-28,-4,2,11,75,-6,2
-3,18,-10,-6,-3,-3,15,-5,2
1,2,1,4,-10,-2,22,-19,2
12,3,3,19,9,-4,-128,-28,2
-2,-11,0,-5,1,2,127,-9,2
2,-9,8,2,3,2,-88,0,2
17,8,-7,-3,-3,2,74,-10,2
-12,-13,-12,-6,-18,-19,51,19,2
4,1,2,2,12,9,-22,-19,2
-10,-15,-10,0,-15,-27,16,25,2
3,9,3,-1,11,21,21,-7,2
15,19,7,-4,5,-2,7,14,2
-19,-10,-15,-1,-24,-24,-73,-12,2
1,2,5,15,12,8,-3,10,2
2,1,1,14,-3,-3,-17,4,2
-2,-38,-2,-10,-2,-8,19,4,2
1,22,-11,-6,1,8,25,15,2
3,21,-9,-11,6,14,18,-2,2
-20,-12,-12,-7,-13,-9,3,2,2
1,4,-4,11,2,-3,-36,-12,2
-6,-18,8,10,3,-2,18,14,2
-9,-14,-1,-9,-3,-1,42,1,2
-11,5,1,-6,-1,-1,3,20,2
1,17,1,-5,4,10,8,1,2
-7,-26,-16,2,-8,-10,-48,15,2
13,33,29,2,11,4,-42,-32,2
12,-8,-11,-1,-1,11,58,2,2
-47,-16,-12,-18,-34,-40,-20,-2,2
7,-2,4,10,3,14,63,-10,2
-5,-5,0,0,6,3,-14,-12,2
12,4,3,-4,10,6,-8,1,2
0,8,5,-5,9,3,44,9,2
-14,-1,3,-5,-11,-6,92,0,2
-10,-26,-15,-2,-18,0,69,-3,2
-14,-6,-3,-6,-4,-3,41,1,2
14,4,-3,-1,5,14,93,11,2
10,-2,8,19,16,5,-12,-4,2
3,37,-7,-20,0,5,-13,12,2
-1,-9,4,2,-1,-7,-11,9,2
15,-20,-6,-1,14,19,-73,-16,2
18,4,12,0,12,18,65,1,2
-28,-7,7,-2,-24,-15,26,-2,2
17,23,-14,3,5,13,-6,7,2
-25,-6,-6,9,0,-8,-99,-7,2
44,22,14,-2,33,19,-128,-22,2
-22,-23,-8,-8,-23,-16,6,19,2
4,-4,8,4,7,3,-76,-34,2
0,5,4,8,5,17,33,9,2
-13,2,8,1,-6,-3,71,-29,2
15,10,-12,2,16,-16,-118,-13,2
-16,-19,-13,-9,-13,6,-57,6,2
-8,-3,-10,-4,-10,-11,44,2,2
-4,1,3,0,-8,-4,42,4,2
15,-6,7,-2,6,1,-27,14,2
-6,2,2,-3,0,-10,8,5,2
10,5,-5,-3,4,5,6,-2,2
-15,-23,-7,-3,-8,-6,-32,6,2
11,-15,10,-21,3,12,114,0,2
-1,10,-4,-1,0,-17,-62,2,2
17,13,1,8,3,12,23,-18,2
-15,1,2,-5,-14,5,64,-21,2
-4,-8,2,15,10,4,-44,-4,2
0,2,4,2,1,-3,19,12,2
8,0,18,0,-1,1,-3,7,2
13,9,-14,2,-6,-24,-33,21,2
-30,-16,-14,-5,-19,-8,-29,-30,2
12,11,10,6,7,3,-44,-20,2
-10,-13,-9,-4,-5,7,91,-19,2
27,26,17,5,17,12,10,20,2
-7,-24,-11,-2,-11,-17,-71,11,2
1,-10,-20,-3,-1,-5,72,-12,2
3,19,17,-5,0,-2,-53,-4,2
-13,-7,-29,-5,-11,-10,28,-15,2
14,19,26,-2,1,5,18,5,2
-4,2,-9,-2,-1,-1,-1,-6,2
7,-13,-18,1,4,5,5,-1,2
-2,12,17,4,-3,-4,-11,-2,2
-4,50,-1,3,2,4,59,-21,2
-7,-5,2,-2,2,3,-22,-11,2
-15,-40,-9,-8,-19,-16,-72,-12,2
-17,-15,-17,-2,1,2,15,-16,2
5,-11,-2,0,3,-3,40,2,2
4,6,14,0,-1,7,77,14,2
14,9,1,3,10,6,4,-6,2
-14,-18,5,-2,-12,-20,-117,2,2
16,10,8,5,15,20,86,-13,2
6,-2,-18,2,0,-4,-7,1,2
-15,-15,-12,-3,-12,-23,-45,33,2
5,5,6,-5,1,6,-16,14,2
-3,-5,-3,7,0,-4,-20,2,2
2,-9,7,-2,-2,5,30,3,2
2,-6,-3,5,3,-3,-44,-7,2
0,5,-13,-4,4,8,-7,12,2
5,4,1,-1,3,-8,-74,13,2
-13,-44,-4,-10,-6,11,94,0,2
-3,38,1,3,-2,4,37,6,2
-6,4,7,0,-6,6,121,-2,2
-1,-23,-31,-1,2,-2,-19,-20,2
13,-1,6,3,4,-5,-79,0,2
-5,3,20,-12,-3,-7,-21,-3,2
-18,-17,-22,-5,-20,-7,96,25,2
5,4,-4,3,-3,-2,-90,-11,2
21,25,16,7,11,3,13,4,2
-24,-25,-10,-7,-6,-10,-83,-4,2
9,12,14,8,7,2,-51,1,2
4,1,11,-3,1,-1,-36,4,2
-11,-1,-3,-1,1,-1,45,0,2
20,-11,1,3,6,6,31,4,2
2,13,-8,-1,1,2,18,-15,2
-3,-23,-19,1,-4,2,-11,-11,2
-23,-31,15,-1,-6,-8,-112,-21,2
13,15,-8,10,-1,4,35,16,2
6,0,12,3,9,1,-80,-5,2
10,3,3,7,9,13,92,4,2
-8,37,13,-8,-7,-16,-20,-3,2
-17,-21,-15,-3,-20,-1,0,-18,2
3,-11,5,3,4,2,-109,-12,2
9,-2,-5,-3,6,11,82,7,2
-6,6,4,-2,3,-1,1,-4,2
4,11,8,2,10,5,-1,4,2
-5,-11,-1,0,-9,-9,48,-15,2
-8,-6,-5,-1,-8,-22,-67,-2,2
6,31,7,2,1,10,55,5,2
-9,7,1,-3,-6,-11,12,-16,2
9,3,20,2,3,4,37,-5,2
-3,-21,-12,13,-2,-8,-93,10,2
-1,29,-14,-7,-6,-4,-80,10,2
-1,18,5,-6,8,10,24,-9,2
-1,12,0,-9,-11,-12,-77,7,2
-30,-19,-5,-5,-13,-4,24,-13,2
-7,-15,-2,-1,2,6,123,1,2
5,-1,-4,-2,-3,-15,-93,0,2
-9,-10,-14,-1,-1,3,-1,15,2
-25,-1,3,-22,-8,-4,-29,11,2
-25,-25,-28,6,-26,-41,-41,-6,2
13,1,10,7,15,23,98,4,2
-4,-10,-7,-1,-2,-12,-35,-8,2
21,15,12,3,7,10,47,8,2
7,3,14,-4,7,-2,-15,-14,2
-5,-6,-7,5,-10,-1,14,-6,2
4,-1,0,7,8,2,-7,-7,2
-5,5,3,-3,1,1,8,-11,2
5,5,2,-1,3,6,-60,-14,2
2,-12,-16,0,0,-2,0,-4,2
22,23,18,-4,10,19,58,-10,2
-17,-18,6,-1,-14,9,99,-4,2
-9,-51,-8,2,-7,-14,-86,0,2
23,39,4,2,3,8,83,0,2
5,6,-2,2,4,4,-65,3,2
9,12,20,0,8,8,29,0,2
3,-14,-13,-2,0,-3,2,-4,2
-1,-11,0,5,1,1,1,-3,2
-7,-16,-9,-2,-4,-9,-17,-8,2
19,18,10,1,6,5,31,-7,2
3,6,5,-3,6,12,33,2,2
-4,2,7,-1,-3,-9,-87,-9,2
-26,-12,-26,-6,-11,-1,14,-38,2
5,-11,6,-7,3,-2,-22,-2,2
6,12,0,2,-2,2,-42,-1,2
-19,-13,-10,-8,-9,-8,58,-14,2
3,-6,0,3,-1,1,-24,-2,2
5,9,-3,4,6,-3,-25,-5,2
-1,-2,5,-1,0,5,-30,11,2
-4,4,3,-5,7,1,-9,8,2
-12,-18,-4,-2,-6,1,85,10,2
-7,-5,-13,1,-12,-10,-99,-8,2
5,8,7,-2,2,3,75,10,2
9,3,6,5,5,5,-7,2,2
4,8,3,-1,1,-4,24,7,2
-4,1,-10,-3,-3,-2,4,-2,2
2,-5,3,0,2,6,35,-7,2
3,2,-20,-4,0,-1,-83,-7,2
-3,16,2,-2,-6,-1,-20,1,2
-3,-22,3,-4,3,3,107,13,2
10,3,-1,6,-1,0,-30,-5,2
9,17,-6,0,-4,3,-12,-17,2
9,1,2,1,4,5,59,12,2
6,14,-4,0,3,-1,-42,8,2
-3,-4,6,1,-3,-13,-63,-4,2
-4,-15,-2,1,-6,-8,-6,6,2
12,6,-7,2,5,4,65,11,2
-2,-32,-17,-2,-3,-10,-2,0,2
-10,7,-2,-3,-6,5,79,-12,2
-2,-2,9,0,-3,-5,1,0,2
-1,0,3,3,-1,-6,-41,8,2
0,5,4,-1,0,0,-25,-9,2
2,1,-4,-7,0,4,13,-6,2
-1,-2,-5,4,1,-2,-1,7,2
-3,-22,10,0,0,7,15,0,2
-7,15,1,1,-3,-6,-59,0,2
-1,1,-3,-3,0,3,-2,-2,2
2,5,2,1,-1,4,79,1,2
5,-3,-7,-3,-4,-2,10,-17,2
-21,-20,-19,0,-1,-3,11,-25,2
-5,10,18,-3,-3,0,-20,-4,2
3,-17,-2,-1,3,-1,-31,0,2
-3,17,-4,-4,-2,1,28,-12,2
11,16,24,3,3,5,23,-9,2
5,6,-26,-2,7,8,109,-4,2
-16,-48,-13,-6,-10,-12,-50,10,2
-16,-6,0,2,-7,-2,33,-12,2
4,10,3,-2,-1,3,9,1,2
-1,-7,4,4,5,-1,7,-10,2
0,13,12,-2,2,6,27,-1,2
1,-3,-7,0,-1,-11,-34,3,2
-5,-4,1,-1,-2,-3,-33,1,2
8,5,1,-3,2,4,28,-4,2
3,6,5,2,1,12,63,-13,2
-4,15,3,-4,-4,-5,25,-8,2
-6,-20,-18,2,-1,3,55,0,2
-4,-16,-19,-7,-2,-4,-83,8,2
14,29,29,3,2,-1,0,3,2
-4,-14,1,1,4,5,23,-6,2
12,16,3,-2,-4,-10,-78,2,2
-14,-14,-10,-4,-5,-4,12,-4,2
-9,2,3,0,-3,4,4,-1,2
6,2,7,4,2,1,-34,1,2
6,15,19,1,4,9,92,4,2
0,-8,-14,-2,-4,-13,-71,-5,2
-6,-2,-1,-3,-1,-4,-37,0,2
10,9,9,2,0,1,-4,2,2
-7,-27,-15,2,-1,1,6,-18,2
-8,6,12,-4,-3,-14,-29,14,2
0,1,-7,-2,-5,0,20,-12,2
-5,-6,-2,-3,-3,-7,-84,-2,2
5,-3,1,-2,0,1,49,-11,2
11,10,8,4,5,6,-57,-1,2
-7,0,-8,3,-3,-9,-55,-3,2
-5,-5,19,-6,-6,-7,-34,1,2
-3,-13,-17,1,-2,-3,27,-2,2
-9,6,6,0,-5,-1,-14,-11,2
4,2,-9,-2,1,2,55,4,2
2,10,-1,1,1,3,-16,1,2
1,12,11,-3,1,0,8,-10,2
-3,5,2,-1,0,5,35,-1,2
-5,-24,-8,-2,1,-1,4,-1,2
-8,1,-4,1,-2,0,-3,-7,2
-15,-12,-18,-5,-2,1,20,0,2
11,9,-1,2,-5,-5,-20,3,2
-3,-8,5,-1,2,5,-41,-5,2
1,-2,-9,1,2,1,-7,2,2
-8,-3,7,-2,-2,-5,-36,12,2
-3,13,20,-1,-1,2,5,-6,2
2,9,2,2,-1,3,58,-1,2
4,-11,-14,-4,2,-3,-46,-5,2
15,22,10,7,6,11,-52,-6,2
-8,-5,-7,-4,-10,-9,-11,-1,2
2,-3,6,1,-2,6,35,6,2
6,-8,-1,-1,5,2,79,-2,2
6,13,8,3,2,-3,-49,-11,2
-7,-12,-11,-7,-2,6,124,-14,2
13,-3,-22,1,1,-6,-51,-3,2
-9,-23,14,-1,-5,-1,48,13,2
-3,11,-10,-3,0,1,10,1,2
-11,5,9,1,0,0,-20,1,2
17,17,14,5,4,3,8,-10,2
-23,-16,-21,-9,-11,2,4,-20,2
6,0,-2,-2,-3,-5,1,2,2
12,-4,6,6,14,13,38,0,2
-9,-3,3,0,-8,-1,-12,-9,2
6,20,-18,1,2,0,-27,0,2
-1,-5,5,-4,-7,-8,3,11,2
6,3,-2,0,5,3,-2,-4,2
-6,-2,-3,-2,-7,-15,-59,1,2
7,8,13,4,2,2,20,0,2
-10,-19,-2,-1,-1,-1,8,-5,2
-1,-13,-11,0,0,-5,-11,-6,2
2,10,-15,-8,-1,2,67,3,2
-12,-25,-4,-2,-8,-10,-48,3,2
1,0,0,-1,1,-1,-20,-1,2
5,12,17,1,-1,2,-22,-10,2
0,5,8,2,3,2,-13,0,2
-3,6,-7,1,0,-1,9,-8,2
-4,-4,-4,-4,0,11,37,-18,2
-4,-6,3,-4,-2,-1,-14,0,2
4,4,8,0,-3,1,40,3,2
5,11,-16,2,6,-1,-11,-34,2
-9,-7,-1,-6,-5,-12,-111,7,2
8,7,-3,0,-4,6,24,4,2
0,-1,8,5,5,1,-106,-4,2
5,-1,5,-3,-4,10,45,5,2
-3,6,0,-1,-5,-8,-11,2,2
-7,-5,-7,-2,1,-3,8,-8,2
1,-7,-5,0,3,-6,-45,-5,2
-3,-3,10,-5,-4,-2,67,6,2
5,32,4,0,-1,-3,-47,-19,2
5,-8,-9,0,0,2,32,12,2
-13,-20,-17,-2,-4,-7,-4,-8,2
5,-6,-6,2,0,0,-31,4,2
4,2,9,1,7,4,77,10,2
-6,-4,-2,1,-3,-8,-50,-33,2
1,8,2,0,-1,3,6,0,2
4,5,-3,0,2,3,-18,-4,2
2,-1,1,0,-1,-2,-4,10,2
6,-6,4,-2,2,2,26,2,2
2,-4,-8,0,0,6,7,-4,2
7,15,3,1,4,-2,-28,-11,2
-6,-7,-4,-2,-6,-1,10,3,2
-2,-8,5,-2,-1,4,-29,-5,2
-1,-5,8,0,-3,-4,31,-10,2
-11,-2,0,-2,-1,-5,-21,3,2
6,-21,-6,-2,3,3,-46,-12,2
-9,19,-21,-2,-6,-5,-29,-4,2
4,3,11,2,3,5,73,-1,2
7,-5,15,3,-4,-3,-38,-9,2
2,11,-23,0,4,1,-22,-14,2
-1,8,25,-3,-4,-2,7,11,2
-12,-10,-15,-6,-6,-7,63,-14,2
-6,0,0,0,-1,3,35,-10,2
1,-10,2,-1,-3,6,54,-9,2
-2,3,8,2,1,-1,21,5,2
-2,-1,0,0,-3,-2,-65,15,2
7,6,1,-1,2,1,2,6,2
4,-5,0,2,4,-1,-35,16,2
-2,7,0,-1,-7,-4,-4,-12,2
0,-9,5,3,1,-1,-90,17,2
-7,-7,-10,-7,-4,0,58,-5,2
8,4,13,5,6,1,13,2,2
-1,-15,-18,-3,-3,0,28,9,2
-3,7,0,5,3,3,16,-12,2
8,0,0,1,2,-1,44,13,2
-4,7,1,-2,-3,-7,-37,-11,2
-8,-12,0,-4,-2,-3,5,5,2
5,-1,0,0,-6,1,0,-6,2
-7,-15,-2,1,1,3,28,2,2
0,0,17,-1,0,3,28,0,2
9,19,-5,7,5,4,-54,-15,2
-5,-10,-7,-5,-6,0,17,5,2
8,11,-2,-2,1,0,-34,1,2
-5,-12,-8,-1,-1,0,28,7,2
6,-6,-1,3,4,-3,-74,-4,2
1,6,0,-4,1,2,91,-16,2
0,-1,6,2,1,-4,-54,-7,2
-1,2,3,-4,-8,-4,-19,-2,2
-9,-5,-7,0,0,-1,-17,-5,2
3,6,0,0,-1,1,-46,-9,2
11,-1,2,1,2,2,69,15,2
-2,5,-1,-1,-7,-5,21,-5,2
-6,-15,-8,-5,-3,-3,27,7,2
-8,10,-1,-2,-2,-2,25,7,2
-5,-6,8,1,-2,6,-78,-13,2
-8,-4,-5,-2,-1,-5,-12,-6,2
3,-10,-4,-1,0,2,42,8,2
0,5,9,-1,7,7,3,7,2
3,0,-9,0,-3,0,25,-10,2
-6,9,-5,-5,-7,0,45,-9,2
-1,-13,-3,1,0,-1,12,13,2
1,13,7,2,1,-4,-4,1,2
-6,-7,-12,-1,-3,-7,-59,-11,2
6,24,8,-2,4,1,-25,-8,2
-1,4,-15,-5,1,1,94,12,2
-5,8,20,2,-8,-4,-62,-11,2
-8,-18,-28,-6,-5,-5,58,27,2
-4,-11,1,3,2,9,72,-11,2
6,2,4,2,-4,-10,-79,-4,2
0,-4,-1,1,1,0,-12,5,2
-1,-3,7,0,-1,1,-9,-10,2
6,-1,-2,0,2,4,-70,0,2
1,0,1,2,0,4,16,-5,2
-1,-8,-8,0,-2,-1,7,0,2
6,13,5,3,0,-7,-57,-7,2
-3,-5,9,-4,0,-1,97,12,2
11,8,1,4,1,0,-73,-4,2
-10,-13,-14,-1,-3,-1,35,-2,2
0,12,4,-1,1,-1,-29,-4,2
4,4,-8,1,4,2,-120,-9,2
-14,-11,-3,-3,-5,3,63,8,2
-3,-3,-4,-3,0,1,83,8,2
-3,-2,1,-1,-3,-6,-36,4,2
3,3,2,-2,0,0,6,12,2
0,-5,-1,-1,3,-2,-36,-13,2
-1,8,-1,-4,-7,2,36,-8,2
1,1,7,4,1,8,-7,-1,2
-6,-1,-8,-4,-2,-10,-71,-5,2
-6,-17,-4,-4,-5,8,47,3,2
6,-2,-1,1,1,3,26,2,2
-9,-15,3,0,-3,-13,-76,-16,2
-2,6,-5,-1,-3,0,74,-13,2
1,15,10,2,3,2,-8,-7,2
6,-11,-7,1,2,-3,-20,-4,2
-1,6,-11,-5,-5,1,8,-10,2
-2,-7,4,-3,0,0,8,1,2
-2,-3,-5,0,-1,-2,44,-11,2
-2,6,3,1,-3,-5,-127,-32,2
-7,-17,-7,-2,-1,0,33,3,2
-4,-8,-4,-1,1,-4,-57,-9,2
-3,11,8,-1,-1,0,1,-10,2
9,4,3,2,6,6,91,5,2
-3,4,11,-1,-4,-1,-83,-10,2
-8,-31,-33,-4,-2,2,54,5,2
-5,1,3,-2,-5,2,-20,-1,2
-5,-1,-5,0,-3,-2,-9,-3,2
9,8,15,-1,3,5,24,-4,2
-4,-18,-5,0,-1,9,60,-14,2
-12,11,-5,0,3,-8,-33,9,2
-4,-15,5,-3,-5,-4,-31,9,2
5,16,5,0,-1,2,53,2,2
14,31,20,1,2,-4,-101,18,2
-10,-15,-28,-2,-3,4,116,5,2
8,-4,-11,2,-3,-12,-103,6,2
-13,-4,-1,1,1,2,46,-2,2
1,4,2,0,2,-1,-15,-1,2
-1,-17,11,-3,0,0,2,0,2
-5,12,-10,-2,0,3,-8,4,2
1,-3,-16,-3,-2,-1,78,-3,2
-1,3,5,4,-2,-5,-22,-10,2
-2,2,4,0,-2,-5,-33,3,2
-3,-8,-3,-2,0,4,-4,2,2
-7,3,-7,-1,-2,-2,-23,-5,2
2,3,7,1,1,4,48,-2,2
6,10,2,-3,0,0,-31,-2,2
-3,-11,5,4,0,-2,21,-9,2
3,-8,-17,-1,3,1,-7,5,2
1,-11,1,-3,-2,-1,14,6,2
8,11,0,4,-3,-4,-37,4,2
0,4,2,-3,1,0,44,5,2
-1,-7,8,-2,0,5,32,-2,2
-9,-6,-10,0,-2,-8,-26,14,2
7,3,1,0,2,0,14,7,2
-5,-13,0,-1,-4,5,103,-14,2
-5,-14,-9,-3,-3,-11,-19,-4,2
-4,1,-6,0,-5,-11,-67,-5,2
12,16,5,0,-3,0,-26,10,2
-1,-1,-4,5,0,-6,-72,2,2
4,-3,1,-4,3,4,37,13,2
-1,-4,0,-3,0,5,54,0,2
5,-1,0,4,5,0,-47,-9,2
-3,-20,-8,-2,-2,0,15,4,2
-2,14,19,-4,-4,-2,-67,-11,2
-2,6,-12,-1,-5,-1,-23,1,2
-9,-36,-9,1,-5,-4,-23,2,2
12,20,-8,-1,3,6,7,-3,2
1,-2,-4,1,2,2,6,-1,2
-3,5,9,-2,1,1,37,0,2
-3,1,1,-3,-1,0,53,-16,2
-8,-3,4,2,-1,1,-1,-10,2
1,7,3,0,-3,-9,-63,9,2
-6,3,1,-3,0,5,70,-3,2
2,12,-3,3,2,4,11,-3,2
-4,-23,-1,0,-1,0,56,17,2
-10,22,3,-5,-8,-16,-20,-3,2
16,7,9,2,1,5,2,23,2
3,-7,-4,5,4,8,55,17,2
-7,0,4,0,-1,-5,5,3,2
7,11,4,-1,-2,0,12,-4,2
3,-13,-19,-1,1,-1,-10,5,2
6,9,4,-6,0,1,23,-1,2
0,-5,-6,0,-2,-1,-8,-10,2
0,-13,13,5,4,-1,-3,2,2
-7,-9,-9,-3,-3,-3,-1,-14,2
-2,-5,1,1,-4,1,-19,-6,2
4,10,4,-1,1,-3,-24,-9,2
-3,-1,-4,-4,-1,5,43,-8,2
-3,-7,-5,-4,-2,-2,9,-12,2
-5,-2,1,0,-1,-6,0,-12,2
-6,-7,-1,-5,-2,-3,-33,-1,2
2,0,-6,1,1,-1,41,4,2
3,-1,7,5,6,-2,-79,-13,2
-10,-8,3,-3,-7,4,38,-10,2
1,13,-3,-1,-3,0,22,-5,2
4,-6,-3,3,8,4,-16,2,2
0,-4,3,-3,1,1,32,-3,2
2,10,6,1,-9,-9,-44,6,2
-2,-4,7,2,0,2,-5,6,2
0,-10,-14,-3,0,8,31,0,2
-1,-5,-6,0,1,-4,-80,-6,2
-3,-2,-8,-3,-1,0,-16,11,2
2,4,2,-2,2,4,2,-1,2
3,9,2,2,0,4,22,-2,2
-4,-8,7,-2,-6,-7,11,13,2
-1,-10,-11,-1,3,3,33,-5,2
-1,-21,-14,1,-2,0,-21,-4,2
-7,16,-1,-4,0,-3,-65,1,2
-6,11,20,-1,-1,5,58,2,2
-2,-1,-2,-1,1,-2,-62,-7,2
11,-5,9,2,1,-2,-9,0,2
-3,3,-9,-3,-3,-5,-54,-3,2
-7,4,2,-1,-1,-1,11,0,2
3,0,0,2,2,-3,-5,-7,2
0,-16,-5,-1,1,2,-2,3,2
-6,8,5,-1,-6,-3,35,-2,2
9,16,2,0,3,4,-12,11,2
-2,-3,0,1,-2,-2,-35,-6,2
6,13,-7,0,-2,-1,5,2,2
0,-7,6,-2,3,-1,-4,-5,2
-6,-13,-12,-3,1,0,4,-13,2
3,4,3,-1,1,3,75,3,2
-5,6,-18,-4,-4,-3,1,-11,2
-3,-25,1,0,-3,-3,-40,0,2
1,-1,1,0,-1,-3,-43,-6,2
-2,-16,-6,2,1,-1,18,-3,2
2,26,16,-1,1,6,53,1,2
3,-10,-10,0,-2,-1,-17,0,2
-10,-3,-7,0,0,-3,21,-10,2
0,4,10,1,-3,-2,-7,-6,2
-3,-12,-2,3,-1,0,-36,1,2
-1,-23,-18,-3,1,3,18,5,2
4,8,13,0,-1,-1,-15,-14,2
3,21,-1,-5,-3,3,75,5,2
2,8,5,3,-1,-2,-23,-8,2
-2,-1,-8,-1,4,1,34,-14,2
-2,-10,-5,-2,1,5,2,0,2
-8,-13,-1,-2,-2,0,19,2,2
17,21,3,0,-1,4,-15,17,2
-3,-7,-1,-4,-7,-7,-19,4,2
4,2,-11,-1,1,6,50,11,2
-3,-10,5,3,2,-2,-62,-3,2
-6,-1,-1,-6,-5,-3,11,-2,2
4,-16,-5,1,2,0,26,18,2
-2,27,13,3,-5,-9,-59,-6,2
6,2,-4,3,0,3,41,4,2
-6,4,4,1,1,-2,-60,-6,2
-7,2,3,-2,-2,-3,-9,-11,2
-6,-10,-4,-3,-2,1,14,-7,2
5,8,1,0,-2,-2,-28,5,2
-3,-16,3,0,2,1,16,1,2
11,28,6,0,3,2,-10,-2,2
-8,-4,-5,-2,-3,-6,-24,0,2
-4,-4,7,-1,1,-2,1,5,2
-6,-15,-15,0,-3,-1,22,-9,2
1,3,3,2,1,-1,-9,4,2
5,0,4,-2,-3,0,87,-12,2
3,9,-5,4,1,2,-28,-12,2
0,-2,2,-4,2,2,28,-2,2
2,2,4,0,-3,-6,-54,-14,2
-1,-6,-10,1,1,4,5,-15,2
-7,-2,4,-4,-3,5,47,-7,2
0,2,-1,1,-2,-10,-87,-4,2
-3,3,-9,-5,0,3,20,-6,2
0,-1,12,0,2,4,36,0,2
-1,-12,-8,0,-3,-7,-27,-3,2
-9,3,-1,-1,-4,0,-16,-14,2
8,3,6,-2,2,3,48,20,2
-8,-10,-11,-2,-2,-9,-72,9,2
5,4,-2,0,0,0,-3,1,2
2,19,-3,-1,0,-3,26,0,2
-2,-19,4,3,2,5,56,0,2
2,-5,1,-1,-1,7,17,5,2
-1,17,12,-2,-4,-6,-32,-10,2
-5,-16,-20,-2,-4,-3,26,18,2
-2,18,1,0,2,2,-41,-13,2
4,5,12,3,4,1,66,11,2
-7,-29,-25,-4,-5,-7,-61,6,2
6,5,2,-1,-1,-1,69,-12,2
1,-5,-1,0,1,1,38,13,2
-1,-2,-11,1,-2,-6,-54,10,2
-1,4,1,-1,0,3,13,3,2
8,14,12,2,0,3,-16,0,2
-10,-10,-3,-3,-5,-1,21,-2,2
11,3,3,-2,1,7,-17,-4,2
3,3,1,0,2,4,95,10,2
-5,-13,-5,-1,-2,-4,-30,1,2
-3,0,9,1,-1,-3,-33,-8,2
3,-3,2,-3,-2,0,1,6,2
2,-4,0,4,2,-1,-5,4,2
0,0,3,0,0,4,31,0,2
1,-7,-7,0,1,0,-65,-10,2
1,34,11,-3,-5,-9,23,-1,2
-10,-10,-6,-2,-7,-9,-44,-5,2
-1,-2,4,1,-1,0,-5,-9,2
-3,-12,-19,-1,-2,0,12,2,2
5,2,5,2,5,3,-23,-3,2
-4,5,0,0,0,0,5,4,2
-6,-2,1,1,0,-5,-30,-7,2
-4,3,-3,-5,-5,-8,-49,-4,2
2,-7,1,2,0,2,47,14,2
-3,0,-3,-3,1,-2,-51,1,2
4,-6,-1,-1,-2,-1,6,12,2
2,17,1,0,0,1,9,-4,2
-1,5,-8,1,-2,-6,-25,-5,2
-3,-35,-3,-1,1,2,43,-10,2
2,29,29,0,-1,3,37,4,2
-8,-17,-32,-4,-8,-9,-62,-9,2
-9,-11,-9,-5,-1,-3,19,-1,2
9,25,5,2,1,2,-30,-4,2
-3,-14,-7,-3,0,4,41,-8,2
0,-8,16,0,-1,4,63,-2,2
-6,10,-8,-3,-3,0,37,-7,2
3,-3,-7,1,1,2,6,-9,2
-1,-6,-1,-1,-3,-9,-91,1,2
10,23,16,4,4,4,12,0,2
-10,-24,-18,-2,-2,-1,-14,2,2
2,8,13,-1,-2,-4,67,4,2
0,-3,-14,-1,-2,-3,-22,-10,2
7,2,6,0,2,-2,7,6,2
-1,-2,6,3,1,-2,-48,0,2
-5,-6,-13,-2,-3,1,0,-1,2
5,11,-4,0,0,2,-7,0,2
1,5,13,0,1,-3,-32,2,2
-3,-35,-15,-2,-2,4,31,5,2
6,35,14,1,-4,-5,-61,3,2
-8,-3,-4,2,1,8,84,-24,2
-3,0,7,-4,-1,-2,30,9,2
-3,-20,-5,-2,-2,1,0,-5,2
4,12,9,5,0,2,-3,-5,2
-2,-9,-7,-4,-6,-3,-4,-3,2
-9,1,1,-2,-3,-6,-7,-6,2
2,2,-1,-1,2,2,70,0,2
-2,-5,-6,0,-2,0,-40,4,2
-7,-15,-4,0,-1,-11,-51,0,2
1,-3,-5,-3,1,4,16,-13,2
3,18,2,-1,-4,-4,-12,4,2
1,-3,-2,0,0,2,-1,-13,2
-4,-2,0,-2,-2,-2,-3,6,2
-4,-10,-4,-2,0,0,-6,-13,2
-1,5,4,0,-1,-4,-25,-12,2
3,-1,1,1,3,7,41,9,2
-6,-6,1,0,2,5,2,-2,2
7,2,4,0,-1,1,-41,-7,2
-4,-4,-14,-1,-2,2,29,-2,2
-6,-14,-9,-2,-3,-4,-98,-7,2
5,18,21,2,4,2,9,5,2
4,-9,0,2,1,1,39,13,2
7,11,7,0,-2,-1,-17,17,2
-17,-12,-5,-4,-5,-8,32,-14,2
5,-4,-6,0,-3,5,70,3,2
-1,1,4,1,-1,-4,-60,-4,2
-1,1,-1,0,-1,-4,-27,11,2
1,4,1,-5,0,2,15,-3,2
4,-6,2,-1,1,1,-8,-2,2
-8,-7,-4,-5,-1,3,50,16,2
3,-12,-1,-1,0,-3,-16,-10,2
3,11,4,-1,2,12,90,-4,2
0,7,1,0,-3,-6,-62,-4,2
-3,3,-5,0,-1,5,87,4,2
-3,4,4,3,-4,-8,-46,-18,2
4,-16,-19,2,3,0,23,12,2
-8,-1,9,-8,-3,-7,0,-6,2
-1,-2,-1,-3,-2,-2,-20,-11,2
0,-12,-9,-1,2,5,-10,0,2
2,23,16,2,-1,-2,-1,1,2
5,-2,-6,1,0,-1,-23,-2,2
-6,-5,-7,-3,-4,-2,23,-6,2
-11,9,2,-3,-3,-5,28,0,2
7,16,-5,-1,-2,1,-23,10,2
-14,-25,-19,-1,-3,1,32,0,2
9,5,2,0,0,-6,-62,-2,2
3,1,0,5,1,1,-28,2,2
-6,-6,0,-5,-4,0,75,-11,2
5,1,5,5,2,-1,-17,8,2
1,0,-6,-3,-3,-4,20,-9,2
2,1,-10,-2,1,-2,-22,2,2
0,6,31,2,1,2,-35,-7,2
1,1,-7,0,-1,2,8,-5,2
-3,-5,-3,0,0,-1,-19,-2,2
2,7,3,-3,-1,4,33,-3,2
-1,-13,-5,2,-3,0,-56,4,2
4,0,-2,-1,-1,0,-53,-3,2
-11,9,1,-3,-3,0,-4,-9,2
4,9,2,-1,1,0,6,-2,2
-9,-6,2,-2,-2,-4,6,-4,2
-1,-11,-2,0,4,1,-26,-6,2
8,4,3,1,2,7,81,2,2
-9,-17,5,-3,0,-3,-26,-8,2
-2,6,-14,-1,-9,-4,-10,-4,2
12,5,0,2,1,2,-11,22,2
-10,-2,8,-2,-1,-1,27,-29,2
-4,-7,3,3,1,-4,-38,1,2
1,-8,0,-2,-1,-3,8,2,2
-1,-3,-5,-1,-4,-3,-1,3,2
9,13,10,4,3,4,-5,7,2
0,3,-2,-4,-5,-3,49,3,2
-1,-6,-3,5,3,0,-42,-1,2
3,3,1,-3,-1,3,2,-8,2
-3,-5,7,-1,-7,-5,-23,7,2
-7,-7,-9,-2,-1,-2,10,5,2
4,5,5,2,3,2,-20,8,2
1,-17,2,-1,-1,1,72,3,2
-3,9,-12,-2,1,-11,-111,5,2
-8,7,7,-3,-3,6,52,-4,2
-4,-17,-9,0,-4,-2,-40,-13,2
-3,7,-3,-3,-4,-6,73,-3,2
-1,-9,-7,-2,-1,2,-21,4,2
2,1,3,4,0,0,-24,-11,2
-2,12,-5,-3,3,2,9,-30,2
-9,0,0,-3,-1,-2,-33,-5,2
5,0,4,-1,2,0,47,0,2
2,-4,-2,-1,-1,0,-27,-4,2
-1,-7,1,-1,-1,5,71,-3,2
-1,3,-17,0,2,-1,-18,-9,2
6,-14,-14,2,1,-2,-38,-3,2
1,17,17,-2,-6,-3,7,-5,2
3,-7,0,2,1,1,-38,12,2
-9,19,14,-6,-2,-5,63,3,2
3,-3,-10,3,4,8,65,-8,2
5,-8,-13,4,1,-11,-105,0,2
-6,4,3,-6,-7,-7,93,9,2
0,-10,12,4,2,1,-5,-12,2
1,16,14,-2,0,-1,-47,8,2
-3,-5,1,0,1,8,86,16,2
4,-7,-10,-1,-5,-10,-101,1,2
5,1,0,1,-2,-2,18,0,2
-2,-7,-15,-5,0,-1,29,0,2
6,11,3,3,6,4,8,0,2
-3,-16,-6,-3,-2,0,8,8,2
0,-1,-6,1,1,2,-28,-3,2
0,3,7,-1,-1,-2,-37,4,2
-1,3,15,-4,-2,2,10,9,2
2,-3,-10,2,3,3,32,4,2
-6,8,5,-2,-4,-7,-27,-3,2
-6,-5,-4,-2,0,0,14,-6,2
-2,-6,-8,-1,-1,0,39,-3,2
5,6,5,1,0,2,5,5,2
-4,3,1,1,3,4,-13,-7,2
-10,-16,-11,-5,-9,-10,-15,8,2
-4,-5,-8,-1,-5,-3,-43,-1,2
-6,-6,-4,1,1,-1,-19,1,2
6,12,2,0,-1,1,21,-4,2
-2,-1,2,0,2,4,34,1,2
1,3,2,-4,1,1,29,-9,2
-6,-5,-8,-2,-3,-4,-11,-13,2
4,-2,2,-3,-2,-3,-25,12,2
2,9,11,1,0,0,79,1,2
5,-8,-21,1,-6,-6,-37,-8,2
1,2,4,1,3,5,68,-2,2
0,-8,4,4,2,-2,-31,-3,2
1,12,-9,-4,-4,-3,-45,1,2
-5,-11,3,2,1,3,20,-3,2
9,4,-4,-5,1,0,20,-4,2
6,-4,-1,0,5,7,25,-6,2
-29,-16,-9,-14,-17,-11,7,-31,2
2,2,-3,3,-3,-5,-69,5,2
-5,-15,-9,2,0,4,-4,-12,2
1,7,14,0,2,-2,28,5,2
13,11,-2,2,7,4,31,-1,2
-2,1,14,-6,-4,5,81,9,2
1,-15,-21,3,-6,-13,-107,9,2
-5,-12,-13,1,-1,-6,-26,-7,2
8,2,-7,0,1,0,7,2,2
-1,2,5,1,0,-1,9,2,2
5,8,12,0,2,6,58,11,2
-4,9,-7,-4,-5,3,4,-4,2
1,-2,6,3,4,1,-59,7,2
-1,-3,-3,-1,1,3,2,-3,2
-3,-1,-3,-1,0,2,9,-2,2
6,7,-3,1,-2,-3,-12,3,2
-11,-16,-3,-1,-4,-9,-55,-8,2
16,19,8,-1,8,9,62,3,2
-22,-4,-3,-2,-13,-3,56,20,2
6,2,5,3,2,-5,-94,2,2
5,-6,-4,-1,-2,3,25,2,2
0,1,-17,0,5,3,33,16,2
1,-10,4,-2,-3,-12,-73,-5,2
-7,-15,-8,0,-4,2,24,-12,2
8,17,15,-2,2,3,9,17,2
-3,2,-1,-2,-2,-5,-49,-6,2
0,-5,8,-1,-2,1,-5,0,2
1,-4,-6,-3,0,9,98,0,2
-5,-13,-8,2,-2,-6,-80,-8,2
5,18,14,3,4,-1,-1,0,2
5,10,-4,-4,-3,-2,-20,-1,2
-8,-1,0,-4,-3,2,14,-10,2
0,-2,-4,3,3,8,116,2,2
-16,-11,-8,-6,-10,-11,-44,-33,2
9,2,-5,0,-5,-18,-25,9,2
7,3,5,2,3,7,-38,-7,2
-21,-11,-10,-8,-3,-3,63,4,2
-1,-23,-13,2,6,11,47,10,2
17,34,34,-1,4,7,8,-14,2
-2,3,-10,-5,-7,-9,-1,-11,2
5,3,-2,3,0,-1,-24,-9,2
-2,5,11,1,1,-1,-29,5,2
-13,-14,-7,-5,-3,-4,-3,-7,2
-6,6,7,-3,-6,-7,67,3,2
3,-3,-8,-1,-4,-9,-66,-2,2
-1,2,4,2,0,7,82,1,2
2,-10,-7,-2,2,10,73,-4,2
5,7,4,2,5,3,-4,-2,2
8,6,6,-2,7,9,52,4,2
-17,-17,-11,-5,-14,-13,-101,4,2
-3,9,18,2,3,6,-57,-3,2
8,-18,-25,-3,9,14,110,13,2
-2,4,-2,-2,-6,-14,-111,-11,2
9,17,16,0,-4,4,-4,4,2
-5,-23,-14,3,1,0,55,6,2
1,6,-2,-1,-1,-10,-59,3,2
3,18,12,-1,0,3,12,-4,2
1,-7,-7,-2,3,-2,28,4,2
1,7,-2,1,-2,-2,-18,-4,2
-2,-9,8,-2,-2,0,-27,1,2
1,-8,-11,0,-2,0,9,2,2
-3,-7,-11,-1,-2,-3,-14,-10,2
6,4,2,5,8,5,-26,-1,2
-5,-1,-2,-2,-5,-3,-15,-1,2
-3,-6,4,-2,-1,5,55,-6,2
-7,-3,-6,0,-9,-11,-53,2,2
6,-10,-1,-2,2,5,45,9,2
1,-9,-3,1,2,-2,-103,-15,2
12,47,38,3,3,1,-7,9,2
-1,-31,-22,0,3,10,70,-16,2
8,7,-3,1,2,-6,-34,-3,2
-17,-14,-6,-7,-8,2,60,-8,2
-2,-20,-5,2,1,-6,-38,3,2
2,6,-1,-2,2,1,1,-2,2
-1,13,12,1,0,-1,-1,3,2
5,-7,-7,2,1,2,51,3,2
-4,-1,-5,-4,-4,-2,-39,-2,2
-4,4,4,1,2,1,-5,-5,2
-2,13,-11,-1,-2,9,46,-6,2
4,8,10,3,-1,-11,-96,11,2
-11,-7,-3,-7,-5,11,66,-1,2
3,12,3,4,4,-4,-21,-1,2
-16,-21,-9,-4,-5,0,-63,-2,2
5,13,7,0,1,-4,-49,0,2
0,7,-7,0,0,-3,-15,10,2
15,21,23,1,3,5,33,-1,2
-8,-16,-17,-4,-5,-8,32,-3,2
-10,-3,-4,0,-1,0,-36,-8,2
23,1,4,4,11,10,28,-18,2
-13,-4,0,-6,-7,-2,-23,-19,2
-8,2,1,-7,-5,-7,89,13,2
-2,-8,3,-1,-2,-3,25,2,2
0,-4,4,2,-6,-10,-52,4,2
0,-9,-9,0,1,9,17,3,2
8,12,3,1,0,6,83,-7,2
0,-19,-7,1,2,-6,31,11,2
-5,15,15,-2,-3,-6,-37,-3,2
9,11,-2,-4,-1,-5,22,19,2
-8,-4,0,0,-4,-7,3,-1,2
8,8,10,3,-3,-4,-2,6,2
-22,-41,-16,-4,-6,-2,12,2,2
7,20,16,4,1,-7,-36,9,2
3,-15,-14,-1,3,8,-18,-10,2
0,4,-7,-2,2,5,-22,-5,2
-9,-12,2,-4,-1,2,109,10,2
-1,-13,4,2,-3,-11,-68,-17,2
11,17,-3,4,-2,-4,-83,10,2
-3,0,6,-2,-6,-2,42,-11,2
0,-5,-12,0,0,-3,1,1,2
-1,-9,-5,-2,3,6,35,-8,2
5,6,9,3,4,-5,-104,-6,2
-11,-4,-9,-5,-4,7,75,-26,2
12,14,3,4,4,3,-20,3,2
-7,-2,-5,-8,-2,-6,2,9,2
0,-6,3,4,-3,-5,-103,-15,2
-2,6,0,-5,4,6,32,0,2
2,-4,-6,-2,-3,-7,-12,-12,2
-3,5,5,1,2,4,32,-4,2
0,1,1,-1,2,3,20,1,2
5,2,1,-2,4,3,61,13,2
-9,4,13,-1,-1,-5,-15,-16,2
-7,-28,-29,-2,-3,-2,-19,2,2
-2,-11,-11,-3,0,-2,-41,-5,2
-1,4,4,2,-1,2,-21,-2,2
-1,-17,2,1,2,2,12,13,2
11,43,20,0,-3,0,9,4,2
-7,-6,0,-3,-1,6,114,3,2
2,-4,-11,-4,-6,-16,-74,10,2
-5,-18,-10,1,-1,2,-46,2,2
8,5,21,1,5,1,-7,17,2
-2,-1,-16,0,-4,0,15,2,2
-19,-11,-9,-9,-11,-13,43,2,2
-3,11,-16,0,-5,-10,-51,-3,2
-6,-18,-6,-1,-1,-4,-16,12,2
-2,13,12,-1,-1,-5,17,-14,2
3,-2,3,-3,-2,-1,46,0,2
-10,-2,-5,-5,-2,-3,-79,-13,2
-4,-5,-10,2,-1,6,91,-10,2
4,-3,3,4,0,-6,-47,2,2
7,5,4,2,5,5,45,6,2
-5,0,-2,-4,1,4,75,4,2
10,1,-3,1,-1,6,13,-4,2
-6,-12,-7,-2,-1,4,57,4,2
0,-6,-14,1,-4,-15,-124,11,2
16,22,14,1,8,10,76,-21,2
-7,3,-4,-1,-6,-10,-75,-12,2
4,-1,6,2,0,2,-23,4,2
2,27,-1,-1,2,2,-36,-7,2
-4,-17,20,2,6,-1,-51,9,2
0,6,-14,-2,-2,0,2,-7,2
6,-2,1,-1,0,4,16,6,2
-3,-2,-1,-2,-1,4,-9,-18,2
11,15,10,3,3,0,-12,19,2
-6,-10,7,1,-2,3,6,0,2
-3,2,0,0,-2,-4,26,-8,2
-5,-2,5,0,3,2,22,-7,2
-1,-9,-17,1,-3,-2,-54,4,2
4,9,23,0,2,-1,-65,7,2
-9,-8,-4,-3,-5,-6,45,-4,2
2,-2,6,0,0,7,3,-3,2
3,0,-20,-1,-5,-2,18,-5,2
8,7,-16,3,3,-2,-8,-1,2
7,9,15,0,1,2,-1,-3,2
-4,-5,8,0,-3,-5,-82,-4,2
-3,-7,-12,-5,-3,2,68,6,2
-7,-10,-6,-2,0,7,81,-9,2
11,3,6,3,0,-5,-32,0,2
-12,5,-1,0,0,-1,-31,-15,2
-3,3,-3,-4,-2,-1,-3,-11,2
-4,-9,-5,-2,-6,-4,-14,-5,2
0,-5,-2,-1,0,6,11,6,2
0,-1,-1,1,0,-3,-6,0,2
-1,4,6,-2,0,-1,-16,-3,2
-2,-5,5,1,2,1,21,-5,2
1,5,-3,0,-1,-1,-44,3,2
3,-11,-10,1,1,5,33,-6,2
-16,-6,7,-5,-6,-9,87,10,2
0,-9,-6,2,-3,0,-35,-7,2
2,5,6,1,4,2,18,3,2
-12,-5,7,-9,-9,0,31,-7,2
9,-1,-27,4,8,7,27,-3,2
-1,1,22,-4,-5,-7,-40,4,2
-2,-1,0,-1,-5,-3,26,-10,2
9,1,7,2,6,1,-7,1,2
-2,-9,-6,-4,1,4,39,-6,2
-6,-1,-9,1,0,-5,7,5,2
4,2,2,1,1,-3,-7,-7,2
-7,-21,-9,-3,-3,-2,-12,2,2
9,20,8,0,-2,1,-7,-2,2
-6,2,-6,-4,-4,0,3,1,2
-9,-8,-9,-2,-3,-5,-40,5,2
0,1,5,-2,-3,-2,6,-5,2
0,-5,6,2,1,-1,44,-13,2
-4,-6,-3,0,-2,-3,-73,-23,2
-1,5,-1,-3,4,6,89,2,2
13,6,6,3,2,2,15,2,2
-3,-15,-12,4,1,1,-8,-8,2
0,-7,0,-2,1,4,9,5,2
9,2,2,3,6,5,37,-1,2
-1,5,-7,-2,0,3,19,-9,2
5,3,12,1,0,1,71,-2,2
1,3,-1,-1,-5,-2,-8,11,2
-10,-17,-14,-1,-2,-3,-77,-3,2
5,3,5,0,0,6,46,7,2
4,6,5,-1,-3,-5,-72,15,2
-4,-2,-5,-1,1,-1,13,-4,2
-7,0,4,-1,-4,-1,29,-4,2
-7,-18,-29,-5,-3,-7,-37,-9,2
1,16,31,-3,-6,-1,-33,21,2
5,6,-2,1,2,3,65,2,2
-4,-4,-4,1,-3,-10,-115,-14,2
1,-13,-15,-2,1,-1,3,8,2
0,4,-8,-1,3,6,-23,-4,2
-2,-8,5,-1,0,0,-14,1,2
-1,-3,1,-1,-3,7,6,-5,2
2,11,16,0,2,2,76,-12,2
6,-5,-5,1,1,-5,-107,-12,2
-7,5,-8,-5,-5,-9,-9,15,2
-7,-9,-8,-4,-5,-5,42,-9,2
-4,3,2,2,-2,-1,4,-1,2
9,10,8,-1,4,4,-76,4,2
-4,-5,-3,2,-3,-2,46,4,2
-8,-8,-24,0,4,-3,-13,-29,2
12,24,17,-1,-3,5,65,3,2
-10,-5,0,0,-3,-3,-35,10,2
-13,-14,-17,-4,-7,2,12,3,2
5,6,2,1,-1,-8,-72,4,2
11,12,6,0,7,9,75,10,2
-24,-36,-19,-2,-6,-7,-25,-36,2
7,2,8,0,7,8,76,-3,2
0,6,7,-3,-7,-7,-28,12,2
-2,-21,-1,4,4,-4,-53,-5,2
9,39,10,-4,1,3,28,4,2
-2,5,-15,-1,-6,-6,16,1,2
-1,14,11,1,1,5,-1,-13,2
-8,-8,-16,-2,-4,-6,-36,-3,2
5,0,3,0,0,0,-5,-1,2
6,-6,2,1,5,4,-17,-5,2
7,16,9,2,3,9,-35,3,2
-11,10,0,-7,-6,-5,-103,-23,2
-21,-18,-20,-3,-11,-3,65,-3,2
12,9,22,5,8,3,-44,-1,2
3,1,4,-3,1,9,108,0,2
9,-1,2,1,2,-10,-75,9,2
-10,-4,3,-1,3,1,2,-9,2
-10,-7,-7,-3,-6,-2,-25,-15,2
-1,0,2,3,-5,-7,0,10,2
-1,1,-3,-3,-1,-4,-9,0,2
24,3,2,3,7,6,42,9,2
-1,11,3,2,0,-4,-19,-1,2
-9,-17,-2,0,3,3,39,-6,2
0,11,-13,-4,-6,-1,-17,0,2
2,-7,-1,1,-2,-5,-22,4,2
3,9,-1,0,0,0,8,-4,2
2,4,2,0,1,0,-9,-11,2
-14,-27,-2,0,-3,-4,17,6,2
7,4,0,-2,2,2,48,-3,2
-2,-8,-5,-1,-5,-10,-95,1,2
-3,-3,-3,-2,0,2,-2,4,2
20,20,11,5,7,7,3,9,2
-41,-18,-7,-11,-14,-9,109,-5,2
11,5,-1,4,-5,-6,-62,5,2
-6,-19,-4,-2,-2,4,48,2,2
-2,-1,0,0,4,0,-19,8,2
13,5,-2,6,7,7,40,-7,2
5,0,-1,-6,-3,1,45,8,2
3,5,7,-2,1,-4,-32,1,2
0,-7,-18,-3,2,7,17,0,2
-5,-4,-5,-5,-11,-8,8,11,2
-5,-18,-5,-1,-2,-4,44,2,2
10,11,8,4,5,4,-3,-4,2
-1,20,12,-1,0,0,16,-13,2
8,2,-2,-2,3,-4,-47,12,2
-12,-14,-6,0,-3,-4,-9,-2,2
-11,-35,-11,-4,-5,-7,-61,13,2
-10,-8,-11,1,-5,-6,-51,-8,2
6,28,6,-1,2,0,-16,1,2
10,18,16,2,7,7,23,11,2
2,-1,-2,-3,-3,-5,-41,-16,2
-1,8,15,-1,-2,2,53,-3,2
6,-4,13,3,-1,5,-50,-2,2
-11,-2,-17,-3,-1,7,73,-19,2
2,8,0,0,-1,-1,17,-2,2
4,-8,-6,2,3,2,-23,-3,2
-4,-1,2,-1,-1,-3,25,-8,2
0,-3,-2,3,0,4,14,9,2
-3,4,-4,0,-2,-5,11,5,2
-5,-8,-2,-1,0,4,47,12,2
4,0,1,0,-1,-10,-44,-30,2
-13,-7,-15,-6,-10,-2,12,0,2
-3,-8,1,-2,-3,4,74,1,2
0,-1,-5,0,-1,-5,-38,7,2
6,0,-2,5,7,4,-24,0,2
18,1,-1,-2,3,0,-2,-4,2
4,10,5,0,0,5,41,-4,2
-7,-5,4,-3,-4,-6,14,-11,2
-10,3,-9,-2,-5,-3,-50,-3,2
4,-7,13,3,3,3,-29,-11,2
-1,-18,-21,-4,-2,3,-62,-3,2
-7,9,13,-2,-5,-3,-34,-2,2
7,5,13,0,2,4,98,9,2
1,0,-1,1,0,1,13,10,2
-5,-5,-5,-1,1,-3,-45,-12,2
-12,-7,-5,-4,-7,-4,15,-23,2
-9,-18,-2,-2,-5,-1,-6,0,2
2,2,-4,0,0,7,78,5,2
0,-1,2,1,5,3,10,-3,2
5,1,-16,-3,-1,1,77,-11,2
-6,7,10,-1,0,3,17,-6,2
-4,6,8,0,-6,-7,-9,-12,2
-6,-11,-6,-6,-1,0,22,-3,2
8,-7,2,2,-1,2,5,2,2
13,-3,-25,-1,6,6,-64,-6,2
-6,-3,-2,2,3,-1,-27,-1,2
-3,11,16,-4,-3,-3,45,4,2
-1,-4,-6,0,-4,-2,-8,4,2
2,-6,-3,-3,-3,-1,13,5,2
1,5,8,5,-2,-5,-87,-6,2
-3,4,-8,-2,-2,-4,34,-3,2
-3,-2,3,-2,0,-8,-13,8,2
-6,-30,-14,2,2,5,63,0,2
0,44,30,-4,-2,-4,3,-5,2
8,11,0,3,-3,3,15,-1,2
-2,2,-1,0,0,-1,-38,-4,2
-10,-3,-4,-6,-8,-5,-8,5,2
-2,-18,-14,1,3,-2,5,-4,2
7,-3,0,0,-2,-4,-21,5,2
1,22,11,0,2,1,-17,2,2
-12,-33,2,3,-3,-2,56,-4,2
3,9,17,4,3,3,-50,-4,2
2,-14,-16,0,-2,-1,-41,-3,2
9,7,-6,0,1,6,-15,1,2
-6,2,2,-2,-2,-1,40,-7,2
-5,-14,-6,-1,-4,-3,6,-6,2
3,16,12,-1,1,-3,-6,-11,2
4,-5,1,2,3,3,-3,-9,2
-16,6,-2,-1,-5,-4,-37,-15,2
3,-14,-10,-2,0,3,40,-3,2
-6,13,6,-1,1,3,13,-6,2
-8,-7,-8,-4,-2,-10,-79,0,2
9,19,5,0,-1,-3,-42,7,2
-5,-14,-6,-2,-3,-2,19,0,2
0,-3,-3,-4,0,-1,3,1,2
-4,-6,-1,1,4,0,68,7,2
-11,-14,-14,-4,-2,3,21,-14,2
2,22,9,0,-4,-5,-38,2,2
7,2,2,3,1,4,-4,7,2
-1,4,18,0,-1,0,-17,-21,2
11,2,-10,0,1,-1,32,8,2
-1,2,-4,1,2,0,-11,4,2
-6,-33,-3,1,2,4,86,3,2
-2,12,-3,-4,-8,-13,-86,-9,2
1,-7,0,0,-3,5,90,8,2
-8,-11,-5,-1,-2,2,5,-15,2
6,10,0,2,3,0,-4,14,2
0,-1,-8,-4,-1,4,26,5,2
4,5,-5,-2,2,-1,-56,9,2
11,6,4,0,0,-6,-30,8,2
-13,-6,-6,-4,-5,-2,15,-4,2
-8,-7,-4,-3,0,1,26,-11,2
10,18,-1,0,0,2,-16,1,2
-1,-9,-2,-2,0,4,9,-7,2
-6,4,-14,0,-3,-5,-18,-10,2
3,3,1,0,0,1,13,2,2
-2,-2,11,5,3,-7,-107,2,2
-3,-10,-8,0,2,5,28,2,2
2,6,8,-1,-5,-8,51,11,2
-7,-8,1,-5,-5,-7,-18,-5,2
1,-10,-28,-5,2,0,12,-9,2
-1,-4,2,-1,-4,-1,-23,7,2
4,14,2,-1,-2,3,-31,-6,2
-2,-8,-2,1,1,4,75,1,2
3,10,11,1,0,0,-14,-3,2
1,2,-8,-2,3,-1,26,-12,2
0,-5,20,-1,-2,1,-83,-3,2
4,-15,-25,1,-1,-5,-46,5,2
-4,-4,11,-1,-3,3,10,-5,2
-4,4,1,-1,-4,1,-13,-8,2
1,11,2,0,-1,1,14,-8,2
-9,-9,-17,-3,0,2,5,-8,2
7,6,8,3,4,3,-44,1,2
2,-4,-6,0,1,0,26,-6,2
5,4,4,1,2,2,-10,-7,2
0,-6,5,-3,-4,0,54,3,2
-2,5,-2,0,-2,1,-7,-2,2
7,-1,4,-3,3,2,8,8,2
-4,8,-9,-3,-5,-4,23,-7,2
7,-19,-6,2,2,1,-63,5,2
-7,-4,4,-5,0,0,7,-1,2
-4,0,3,5,-3,-3,-8,3,2
1,-1,-6,0,-1,-3,-29,5,2
7,13,10,0,5,3,35,8,2
-10,-8,1,-5,-9,-12,-19,6,2
-2,-4,-11,-1,-3,1,50,3,2
9,4,0,3,5,3,-59,3,2
-15,-9,-10,-6,-7,-2,63,2,2
-3,-1,5,0,0,-8,-45,4,2
0,11,10,0,-2,-3,-24,-12,2
1,-7,-3,2,3,1,-54,7,2
-1,5,6,-2,-2,0,14,-8,2
6,5,-4,3,5,1,16,7,2
-1,-18,-6,-3,-1,-3,-5,6,2
-13,-1,-5,-2,-8,-7,10,-14,2
-9,9,-3,-8,-5,-5,2,-14,2
1,-7,-3,1,0,2,-16,-7,2
4,2,5,2,2,1,5,6,2
6,-5,6,0,4,-2,-31,-15,2
-2,-3,0,-2,0,-3,-17,-4,2
-3,7,-3,-2,-6,1,52,-2,2
0,0,10,3,3,0,-52,-9,2
-10,-4,6,-4,-4,-1,45,-29,2
4,0,5,1,2,3,-31,-1,2
6,3,2,1,0,2,13,3,2
0,-4,-8,-3,0,-3,-12,-12,2
3,0,9,2,5,4,30,8,2
6,8,10,0,0,-3,48,5,2
-6,-4,4,-1,-2,1,4,-12,2
0,1,-12,-5,-5,-2,43,3,2
-1,0,-5,-1,0,-8,-33,-3,2
-9,-10,-9,-2,2,4,65,-14,2
2,1,-3,-3,-1,-12,-55,5,2
5,-3,7,2,2,4,22,-1,2
-3,2,-11,-5,-6,2,35,-3,2
8,0,6,2,1,-7,-98,3,2
-7,3,-5,-1,0,4,38,-6,2
0,-3,-4,-4,-3,-4,-14,0,2
-5,-5,-5,-1,2,7,50,-8,2
8,9,5,3,2,0,-35,-1,2
-3,-7,-5,0,2,3,29,-2,2
2,-9,-9,-1,1,4,78,10,2
-4,16,11,0,-7,-11,-47,0,2
-21,-34,-15,-2,-4,-1,-7,2,2
9,15,10,1,0,-3,-38,3,2
2,-12,-3,1,0,0,-25,-5,2
0,2,-4,-1,2,6,93,7,2
3,6,6,1,-4,-8,-70,-7,2
-3,-1,-1,2,0,2,-1,-10,2
-5,-1,-12,-2,2,-2,-31,3,2
3,-12,-6,0,3,2,-33,-1,2
5,13,7,2,1,1,19,1,2
2,7,0,0,1,4,15,-1,2
2,15,6,0,-1,-1,-15,-5,2
-5,-5,-4,-2,0,-8,-101,6,2
-8,-10,-6,-7,-2,9,80,5,2
-2,9,28,2,-4,-2,-15,1,2
-1,-1,-5,0,0,3,28,1,2
6,-5,0,1,2,2,11,9,2
9,-9,-10,0,4,1,12,2,2
-1,24,12,-2,-3,-3,13,-2,2
-11,-11,-2,-1,-6,-5,-35,-13,2
-2,-4,-5,-4,-2,-2,44,-2,2
2,9,2,-1,-2,-3,-29,-4,2
1,-19,-20,-1,2,4,39,-9,2
2,4,8,1,-1,-2,-20,2,2
2,3,-2,-1,-2,-2,2,2,2
-1,-1,10,1,1,-1,74,7,2
-3,-5,-17,1,-3,-4,-44,-10,2
0,2,4,0,-3,-4,-42,5,2
-1,-13,-8,-1,-2,1,3,-5,2
16,16,7,1,3,4,21,4,2
-6,-14,-3,-6,-5,-8,0,13,2
3,21,2,0,1,6,102,3,2
0,2,-2,2,0,-2,-43,-3,2
-9,-4,-1,-1,-7,-4,51,-14,2
7,-12,-4,2,3,8,48,5,2
-6,-9,-10,-3,-2,-8,-45,-1,2
5,18,14,1,0,1,22,1,2
-2,-7,-2,-2,3,3,-8,-4,2
0,1,0,-1,-2,-1,-12,5,2
-3,-6,-5,0,-2,4,26,-7,2
4,-9,-15,-1,1,3,13,4,2
-7,0,4,0,0,-5,-60,-6,2
-1,7,1,-1,-4,0,18,6,2
2,0,1,2,-2,0,-14,7,2
-7,-4,-1,-1,-2,-1,-2,-11,2
1,-1,-8,-2,2,2,52,6,2
-1,-8,-8,1,-5,-6,-84,4,2
-12,-7,-1,-3,-9,-3,7,-13,2
-5,-7,-11,-1,0,-2,33,-1,2
-3,8,7,0,1,-2,-37,0,2
4,5,5,0,3,6,45,-5,2
2,5,4,3,-1,0,-23,-17,2
2,-7,-2,0,-2,-4,-56,-4,2
-4,1,-1,-3,-1,-2,-41,3,2
2,-4,-7,-3,-2,1,27,-8,2
1,6,11,1,-1,2,42,-2,2
7,1,6,1,-1,-2,-10,-3,2
6,5,3,1,7,4,-51,-7,2
-9,-4,-21,-3,-4,-6,-7,-23,2
-4,-9,-2,-1,0,2,6,-1,2
-1,-1,-4,0,-1,-1,5,1,2
4,8,11,-3,-3,-3,22,-1,2
2,-16,0,3,4,0,-40,3,2
0,8,8,2,2,2,7,2,2
-3,6,-13,-3,-5,0,20,-9,2
0,-2,-5,1,-3,-3,-22,-2,2
4,-1,0,-1,3,8,63,2,2
2,8,13,0,-2,-10,-43,-6,2
-4,-9,6,-1,-2,1,-35,-18,2
-11,3,-19,-5,-7,-1,19,-1,2
-1,-5,3,1,-2,-1,-6,-1,2
1,-3,-14,-1,3,2,20,6,2
-11,0,6,-2,-1,-3,-19,-37,2
1,-7,-4,-2,-2,-1,2,6,2
3,3,5,1,1,-5,12,6,2
9,2,-2,2,3,5,-14,4,2
-10,-6,-5,-5,-6,-3,-28,2,2
-1,-3,6,2,0,1,17,3,2
-3,8,2,-1,-1,-5,-45,-7,2
2,2,2,-1,3,3,9,3,2
2,19,5,-3,0,-5,52,5,2
-1,-5,-8,1,0,3,-2,-7,2
6,3,19,2,0,1,-26,10,2
-1,-3,-9,-2,-3,-2,8,-5,2
-7,1,4,1,2,0,-1,3,2
-3,-10,4,-1,0,-2,-1,-3,2
-5,-13,-11,0,-3,2,1,-2,2
0,13,4,-5,-7,-5,0,3,2
14,7,4,0,4,2,1,3,2
2,6,1,1,2,-3,-17,-10,2
-10,-16,-7,-3,-3,1,23,15,2
9,3,0,-1,3,5,24,-4,2
0,-15,-3,-2,-1,3,-22,6,2
-4,-3,1,0,-1,-7,-22,-8,2
-1,5,0,-2,-3,4,86,-4,2
0,8,-8,0,-4,0,-32,-4,2
2,7,-1,-1,2,1,-11,-4,2
5,-8,15,7,9,8,-69,-6,2
-3,24,-23,-7,-9,3,3,-14,2
-13,-24,-2,-1,0,-3,41,-12,2
-4,-7,11,2,0,-1,-6,-1,2
-5,-1,-8,-10,-8,-4,-45,-2,2
14,7,7,3,7,4,-1,3,2
-2,-12,-3,2,-1,2,-48,0,2
0,0,-15,0,-2,1,46,-5,2
2,8,9,3,5,7,82,-7,2
7,15,14,0,0,-10,-97,-9,2
-4,0,-1,-5,-5,-4,-21,7,2
3,-18,-13,0,1,-1,37,4,2
-5,-2,-11,-1,-3,-5,9,-8,2
10,8,28,3,3,0,7,13,2
-1,18,3,-1,-1,0,71,-3,2
-2,2,4,-3,-3,-8,-16,8,2
-1,-5,-7,-3,-4,0,18,-13,2
20,1,1,-1,16,9,70,11,2
-7,-10,-5,2,2,2,-35,12,2
-38,-16,-6,-11,-19,-20,43,2,2
4,2,-3,1,-4,-10,-84,-13,2
-2,-7,-3,2,2,0,-30,21,2
-21,-20,-21,-12,-16,5,80,-10,2
16,8,9,8,13,8,31,-3,2
25,-6,-10,2,9,6,-76,17,2
-5,5,-5,3,2,0,-26,-7,2
17,10,13,4,3,-1,-21,-8,2
-6,-18,-10,-6,-7,-1,-61,0,2
3,-2,0,-5,-3,1,78,-1,2
-4,-22,-18,0,-3,-4,-10,-13,2
7,22,-2,0,-1,-2,-31,0,2
12,3,15,6,8,10,41,-9,2
-24,-14,0,-1,-4,-5,45,3,2
-15,-14,-9,-2,-11,-17,-104,-18,2
-5,-11,3,3,-1,-5,77,-4,2
-6,3,1,-1,0,9,-13,-6,2
4,3,-3,2,1,0,-4,-9,2
-2,-4,0,-2,1,4,-9,-1,2
11,-4,2,4,10,2,-76,1,2
-10,8,6,-7,-6,2,62,-13,2
10,14,8,-3,3,7,115,6,2
-27,-17,-13,-7,-31,-25,-55,-15,2
10,14,9,6,10,10,37,0,2
2,-4,-20,1,6,9,59,-4,2
-3,-1,36,-1,2,-2,74,7,2
3,35,1,1,3,-3,-47,-13,2
0,-7,9,-7,-6,-6,-5,11,2
-6,4,-12,-3,-3,14,75,-6,2
-32,-12,-17,-5,-9,-13,-97,1,2
-9,-10,7,-2,-5,-7,59,5,2
-13,-16,-24,-1,-1,-4,-90,-2,2
7,6,9,6,11,9,19,-20,2
16,5,-13,0,7,10,-68,14,2
-17,-6,1,-8,-1,22,115,-24,2
18,3,-15,9,1,-4,-20,-12,2
-12,-33,-11,-1,6,-1,-50,12,2
-2,33,26,-2,-4,2,79,-12,2
3,14,-24,0,4,5,65,-10,2
-5,7,2,-1,-5,-5,-54,-7,2
31,21,5,8,5,-4,-128,12,2
-16,-55,-17,-4,-7,-6,117,3,2
19,24,8,2,7,1,-5,47,2
15,39,28,0,13,8,-5,-7,2
-16,-18,-9,0,-22,-22,-105,-9,2
8,13,-1,2,0,-7,-5,15,2
-4,-21,-2,6,9,14,76,7,2
9,-25,-3,-1,6,-4,-73,-5,2
-6,14,8,-9,-8,-22,-25,5,2
-6,1,-7,-6,-6,-2,-52,6,2
10,-1,5,6,4,3,3,14,2
-6,-5,7,0,-4,0,50,-12,2
8,3,3,-3,0,-1,1,7,2
-13,-4,-18,-5,-2,-1,65,2,2
36,37,46,8,15,-7,15,-23,2
-31,-23,-45,-3,-37,-49,43,5,2
-7,-16,-3,-4,-8,-2,72,3,2
7,-9,-9,7,9,24,19,-26,2
48,51,30,4,18,13,91,19,2
6,2,9,7,16,18,13,-2,2
-19,-10,-1,-11,-15,-26,-71,-61,2
6,-13,7,6,-4,2,59,12,2
-13,12,15,0,-3,-11,-76,-5,2
3,-13,-31,-5,13,28,94,28,2
-22,-11,-15,-10,-19,-23,62,-14,2
-22,-37,-39,-10,-22,-39,-115,24,2
-69,-37,-42,-18,-26,-16,-117,-28,2
-10,1,14,2,5,16,76,6,2
30,18,9,10,15,17,26,24,2
3,7,5,0,3,-7,-84,-10,2
-7,-21,-21,-8,-12,-2,127,13,2
-18,-36,-7,-5,-8,-14,-21,-17,2
5,-2,12,2,6,-1,-9,-5,2
-3,34,-20,-7,-3,-2,71,-2,2
34,-3,-14,4,11,10,24,4,2
-11,-1,24,-8,-11,-18,-105,-6,2
39,-1,-6,7,3,14,-66,-15,2
7,26,38,2,7,5,-17,11,2
-8,-25,-13,2,-7,4,55,4,2
17,11,-7,8,5,-25,-121,0,2
7,3,-9,5,-9,0,3,-13,2
-3,4,7,5,-1,-7,-103,-30,2
-6,1,7,-13,0,3,0,-7,2
29,12,16,11,20,5,-26,7,2
-56,-10,-21,-23,-34,-33,-51,-9,2
8,3,5,8,9,12,8,-14,2
-29,-18,2,-3,-13,-24,-92,28,2
5,3,-3,2,-2,9,-28,-8,2
8,7,17,0,25,12,20,13,2
5,20,2,-5,-2,3,4,-3,2
-11,-2,-11,-3,-6,-5,-107,-25,2
-21,-12,-10,-8,-10,2,46,-10,2
-7,3,-6,-1,3,3,-7,5,2
3,-14,41,-2,1,5,-65,-9,2
22,-22,-16,2,8,11,74,-10,2
9,41,17,-2,1,4,-29,-6,2
1,25,-17,-2,11,19,45,4,2
-4,-8,-8,-3,-7,0,41,-13,2
-3,-2,9,1,-1,0,-38,-1,2
-15,-25,-16,-2,-13,11,127,9,2
22,-8,20,4,17,0,-22,-12,2
-15,10,-2,-4,-6,-14,-128,-11,2
-6,-7,-14,-6,-9,7,78,-12,2
10,-19,1,-1,-2,-1,49,15,2
-5,13,10,-2,3,6,75,13,2
9,0,-4,1,6,7,88,16,2
10,18,12,2,-3,-13,-104,-2,2
13,13,10,5,10,16,46,-2,2
-27,-13,-2,-5,-24,-31,-99,2,2
-1,-7,-5,-8,-2,4,47,-13,2
-3,-14,20,7,9,14,68,6,2
14,7,-3,3,4,6,-14,-1,2
8,-2,6,-2,2,3,10,23,2
-13,-5,-12,1,-3,-8,-51,-1,2
-5,10,3,5,-4,5,-39,5,2
5,-2,-8,0,5,-2,-4,-23,2
13,29,5,-1,8,18,43,-4,2
4,-4,11,5,2,-1,-17,17,2
-1,-5,-2,-1,6,10,67,-5,2
-3,19,10,-7,-9,-20,-102,-3,2
-23,-11,-7,5,-7,2,34,-15,2
10,-5,-23,2,3,10,71,-9,2
-7,-3,-10,-1,-3,-20,-75,30,2
-34,-25,-11,-11,-7,9,127,0,2
5,-5,15,3,8,-4,-35,-2,2
1,3,2,-7,0,13,64,-13,2
-2,-13,-12,0,-8,-8,19,16,2
20,15,8,11,13,3,-39,14,2
2,8,7,-14,-3,9,93,-23,2
-25,-12,-16,2,-6,1,-44,-15,2
14,12,8,1,5,19,93,-19,2
-3,-3,-7,2,1,-1,-9,-8,2
18,0,10,2,8,7,127,-5,2
-25,-15,-12,-9,-18,-21,-38,-4,2
2,-2,11,0,1,-4,-55,-23,2
-7,-11,-14,-1,-5,-2,-11,-10,2
9,-1,-12,1,10,9,59,6,2
16,25,20,0,3,-8,46,4,2
-27,-18,-12,-3,-15,-16,-90,-19,2
-4,-3,-8,-3,-9,-7,35,-8,2
0,-17,-3,1,1,-1,-91,25,2
3,-1,1,2,7,6,48,5,2
-18,-2,-1,-6,-11,-9,-78,3,2
-9,-7,-6,-5,-10,-6,-70,4,2
-3,-9,-6,2,-2,-4,-23,-10,2
22,12,14,6,10,4,34,49,2
12,-1,-12,-5,-2,3,43,-11,2
-9,5,17,-3,-3,-2,19,13,2
-8,-7,-11,-2,-3,-14,-121,20,2
9,17,-11,0,4,2,-60,-15,2
30,3,26,8,10,13,99,13,2
-36,-19,-12,-7,-18,-14,-43,-60,2
-3,3,1,1,1,11,53,1,2
5,4,6,-2,7,-12,-99,-19,2
-1,-1,-9,0,2,10,41,7,2
21,15,5,5,-1,1,-27,-2,2
14,10,14,2,14,13,76,9,2
-24,-16,-13,-3,-15,-21,-59,4,2
-3,8,7,-4,-7,-5,104,-12,2
12,8,9,4,2,-5,-71,7,2
-35,-22,-24,-8,-17,-16,34,3,2
14,-19,23,7,9,18,72,-15,2
25,36,-16,-2,7,-15,-81,-2,2
3,-15,-20,-2,6,20,118,4,2
14,14,19,3,-13,-27,-128,-8,2
1,-18,-7,0,3,14,110,-7,2
0,-34,9,1,9,5,28,-5,2
8,34,9,-2,-2,-8,17,30,2
-4,-4,5,4,9,7,-28,-29,2
-12,34,-7,-14,-11,6,-33,21,2
2,-13,-9,9,0,12,-3,-13,2
6,-12,-3,1,6,4,20,6,2
2,-3,4,1,5,4,27,-6,2
1,0,2,2,3,-9,5,-1,2
-18,-4,-7,-6,-1,-2,-41,-1,2
-13,-4,14,-7,-11,-9,34,-11,2
-1,-2,-14,0,-3,-2,-13,-4,2
1,-11,-8,-3,1,5,83,1,2
3,5,3,3,-1,-8,-75,-4,2
4,5,4,2,2,-1,-9,8,2
4,1,-5,-8,-3,2,79,29,2
-13,-13,-9,-1,-9,-10,-48,4,2
10,16,7,2,-5,-9,-50,17,2
-8,-7,3,-2,1,-4,-27,5,2
20,-1,-8,2,7,7,-20,-7,2
12,18,11,3,7,11,39,36,2
-50,-54,-23,-7,-18,-23,7,-15,2
21,3,19,5,5,9,-56,-1,2
-6,2,6,-11,0,-1,95,2,2
7,30,-13,7,-9,-2,-92,-21,2
14,9,6,5,3,6,-62,12,2
8,0,-7,-3,2,1,44,9,2
-14,-13,6,-2,0,6,36,-28,2
-6,-18,1,-5,-4,-8,0,-7,2
3,14,3,-2,4,6,41,19,2
-2,-17,-15,1,-11,-9,-71,-24,2
8,13,9,3,2,1,-119,5,2
-2,-6,-2,-5,1,-3,41,-4,2
2,10,0,-1,-1,3,-32,-5,2
-6,-7,7,-2,5,2,19,-2,2
4,21,0,-1,-6,-2,26,2,2
-1,-9,-21,-6,-2,4,-64,6,2
-12,-5,13,-2,-4,5,94,-8,2
0,33,21,3,-2,0,-54,-18,2
2,2,-1,5,5,7,79,-12,2
15,2,-2,1,2,-7,-32,-15,2
-2,-10,12,-1,6,2,39,-27,2
-14,-10,-48,-17,-15,1,17,-10,2
8,6,5,4,5,5,-50,-3,2
5,6,-1,0,1,3,73,-1,2
-19,-19,-10,-8,-11,-20,-85,4,2
-4,5,22,3,8,3,1,-5,2
7,-1,-14,-4,-2,-6,-64,4,2
-17,-22,-7,-4,-8,3,85,8,2
17,35,13,6,7,4,-23,-3,2
5,-8,-10,3,3,3,8,5,2
-22,-29,-4,-7,-13,-16,-38,-5,2
3,18,9,-1,12,13,56,-10,2
7,14,-2,4,1,6,75,-8,2
-2,20,6,-3,-4,-11,-67,18,2
7,10,19,1,0,7,40,2,2
5,4,2,3,-3,-2,18,8,2
27,-5,-11,3,9,7,-24,9,2
-29,-3,16,-8,11,15,127,-28,2
-61,-33,-46,-21,-52,-66,-90,3,2
7,2,14,7,-7,3,2,-4,2
-1,-5,-7,1,1,5,15,8,2
13,-4,11,4,6,1,32,0,2
48,29,6,1,20,21,33,-4,2
-33,-13,0,-2,-7,-11,-52,-1,2
0,-5,-2,-4,-6,0,41,-7,2
0,-18,-19,0,0,-7,-69,-7,2
-11,21,19,-1,5,8,63,-17,2
10,-9,-10,0,5,-14,-128,3,2
-5,0,19,7,-5,5,68,0,2
2,-3,-9,-2,-4,10,127,-4,2
9,0,-3,8,4,-2,-25,33,2
2,4,1,3,5,-1,-48,-9,2
-2,-2,-3,-5,2,0,24,6,2
4,9,1,3,3,-5,-42,-18,2
-17,-31,-6,-7,-7,5,70,-7,2
-11,11,3,-4,-15,-10,6,-22,2
-11,-19,-28,4,1,-9,-114,23,2
9,45,14,-5,-8,-9,-73,4,2
2,-8,-4,-4,-1,5,73,-11,2
20,10,11,6,12,12,-10,2,2
1,-10,-1,0,-3,-1,20,-17,2
-9,-22,-14,-4,-5,-5,-25,-16,2
4,6,1,-2,6,5,17,-3,2
1,-12,1,-4,-3,-3,42,-2,2
11,10,1,7,-3,3,13,-6,2
1,-16,-4,1,1,-3,-6,3,2
-3,4,3,-3,1,1,31,3,2
22,9,10,3,16,-3,-90,-4,2
-21,-10,-11,-5,-20,12,35,-10,2
5,-1,-5,9,-3,-8,-80,14,2
0,-3,-1,4,4,0,-89,10,2
-3,-3,-3,-2,-3,8,91,4,2
-3,12,6,-2,11,-9,-64,-3,2
10,-5,-1,-5,1,14,119,16,2
-5,-4,-6,2,-1,-2,-15,-4,2
-11,-10,-1,-7,-8,-3,-18,1,2
12,2,-10,-4,2,7,77,5,2
-6,-13,-8,0,-10,-3,-2,2,2
18,6,8,5,13,10,3,-1,2
1,21,-2,-4,-3,-5,-20,7,2
-8,-21,6,2,-1,-1,-4,-4,2
9,6,8,1,5,-4,-58,-4,2
-11,23,0,0,-2,15,7,-31,2
-17,-34,-17,-11,-26,-21,-60,-2,2
13,4,6,1,5,9,64,1,2
1,-1,0,2,10,-4,-84,-5,2
-25,-15,4,-2,-10,-12,-10,11,2
2,7,9,-3,1,13,88,21,2
5,0,-20,5,1,-11,-128,-1,2
-8,-1,6,-3,1,2,63,1,2
-8,-5,-9,-9,-2,-5,-40,-5,2
1,2,4,8,3,10,-53,1,2
-6,-4,-1,-7,-4,-3,21,-1,2
-3,4,-1,-4,0,3,-17,-2,2
17,18,24,9,11,-4,-103,-1,2
-10,-20,-13,-2,-10,2,75,-8,2
4,7,-6,-2,-5,-8,-102,3,2
19,5,8,6,13,15,-35,-2,2
-18,-20,-20,-5,-16,-4,96,14,2
8,-9,-3,6,5,1,-26,-18,2
3,30,28,-3,3,-1,-11,-9,2
-8,-43,-29,-2,0,-9,24,11,2
-5,-8,0,-3,-8,-8,7,-1,2
18,23,2,2,10,17,127,15,2
-13,-9,0,3,-9,-18,-26,4,2
-15,-1,1,-7,-8,-8,82,-15,2
25,-10,2,4,3,-3,-114,-2,2
-12,0,-3,-1,1,-5,-96,-1,2
-9,2,-3,-2,-8,2,28,-1,2
-17,0,1,0,-4,1,-8,13,2
11,-6,-4,-1,1,-1,10,0,2
6,12,15,3,10,4,25,-6,2
-14,-1,-10,-3,-3,-6,7,10,2
0,0,-5,-2,-5,1,17,-16,2
-8,-3,-7,-4,-3,0,22,13,2
-3,5,14,3,4,-3,-87,-5,2
15,4,-2,1,10,6,-49,-4,2
-6,-11,-25,-5,-14,9,103,15,2
9,8,18,6,7,3,16,5,2
-11,11,17,-4,-9,-18,-95,16,2
3,-1,3,-2,0,9,65,-12,2
10,15,7,4,5,8,54,-8,2
-3,-4,-20,-3,-3,-15,-101,-23,2
-4,-17,-20,-5,-11,2,126,-2,2
0,3,13,4,5,3,5,-6,2
2,2,0,-5,0,-5,-8,-14,2
3,27,7,1,0,6,16,-15,2
-8,-63,-18,1,1,-3,-45,-6,2
9,36,-7,-5,-1,14,67,-7,2
-10,-5,-13,-1,-12,-34,-97,-33,2
-9,-17,9,-8,-6,11,111,-7,2
24,33,9,8,-4,-9,-33,-9,2
14,-11,2,2,7,8,20,8,2
-2,0,9,-2,2,5,17,-4,2
24,5,-7,1,7,7,-8,-7,2
-24,4,-9,-5,-3,-2,16,17,2
-23,-18,-6,-4,-6,9,85,-18,2
0,10,5,1,-4,-8,33,-9,2
-6,-9,-8,0,6,-2,-30,12,2
3,0,-3,-5,0,17,127,-9,2
11,-3,0,2,-4,-18,-56,-5,2
9,7,12,6,13,7,-118,6,2
-33,-16,-5,-13,-8,-12,39,-7,2
-8,-13,-29,1,-13,-10,-59,0,2
7,5,1,1,5,5,-21,-12,2
8,-18,2,-3,6,7,114,31,2
4,19,16,1,-4,-18,-90,-23,2
-6,-34,-29,3,-2,0,8,-7,2
-2,13,20,-6,-5,-10,-25,0,2
6,22,0,5,2,8,15,14,2
11,-4,0,-1,4,12,94,-10,2
-12,0,3,-1,-2,-2,9,12,2
27,13,-3,3,0,0,69,-13,2
-3,-6,0,-4,-4,2,-27,-8,2
1,-15,-13,0,1,2,90,17,2
-1,8,2,4,-4,-3,-71,-12,2
3,-14,1,1,7,-1,-15,19,2
-15,-1,-15,-9,-7,-7,-51,4,2
-2,6,0,3,-1,-3,-67,-4,2
7,6,7,0,8,5,34,3,2
-13,-9,-6,2,-5,-11,-80,0,2
8,18,17,-7,-2,-3,-3,-5,2
-11,-28,-31,0,-5,5,-2,23,2
-15,-13,-8,-4,-4,3,127,7,2
2,19,14,-2,-5,3,-93,-2,2
0,-10,-13,3,1,16,127,0,2
10,18,6,-1,2,4,-62,-4,2
9,11,16,5,5,-1,-59,-12,2
-14,-32,-24,1,8,11,40,5,2
-2,-2,-6,-7,-13,-15,12,27,2
-8,-1,4,-3,0,1,-68,-10,2
18,6,7,1,7,5,-28,-1,2
-22,-20,-1,0,-12,-6,-37,-4,2
-4,8,9,5,1,-4,-43,-4,2
12,10,5,-3,2,2,-28,-9,2
7,12,11,-4,5,5,70,-3,2
1,-10,-8,6,-3,-16,7,8,2
-5,-11,0,-4,-2,0,-61,-21,2
2,16,10,4,3,7,9,-15,2
8,9,6,-4,2,9,-12,-8,2
-11,-9,-16,-4,-1,-1,41,-12,2
6,17,19,-1,-1,-3,-4,-17,2
3,5,-2,5,2,-1,-12,-3,2
3,8,3,-3,2,7,82,1,2
1,-3,-2,2,-3,-11,-12,2,2
13,-1,1,1,11,3,-79,-4,2
-26,-20,-20,-4,-28,-17,25,-6,2
-16,-16,-7,2,-5,-12,-93,-4,2
6,4,-3,0,2,3,2,20,2
3,9,10,1,9,7,70,-5,2
4,-16,-5,-1,-2,-7,-30,0,2
-2,4,-11,-2,-5,-4,9,-1,2
3,7,16,-6,0,4,57,6,2
-15,5,-8,-3,-3,5,-8,-5,2
2,-5,3,-2,0,-1,-3,-5,2
5,2,12,1,-1,-1,53,-9,2
-1,-20,-26,-2,2,0,-92,-10,2
8,16,13,-1,2,4,73,-6,2
-16,-27,-8,1,-3,1,-12,-5,2
10,27,3,4,-1,-5,-39,-5,2
7,15,14,2,9,22,127,-4,2
-14,-20,-19,-5,-11,-18,-128,-33,2
1,-6,-22,5,2,12,51,-5,2
-10,-6,3,-5,-1,-7,-84,-9,2
1,10,-14,-3,-2,0,-29,3,2
8,-1,-5,-1,-2,-3,-24,-2,2
18,20,18,1,14,10,67,12,2
-25,-25,-14,-3,-11,-8,-21,-20,2
6,6,14,-4,-2,0,17,6,2
-11,-15,-14,-5,-3,1,25,-8,2
0,2,5,1,-1,-7,-39,6,2
17,7,8,5,6,7,-30,8,2
-18,-11,-6,-4,-8,-5,-27,0,2
-5,3,8,-1,-6,3,57,9,2
5,14,4,-5,1,1,-32,9,2
-1,-8,-5,0,-4,-2,-81,15,2
-7,6,7,-3,-2,-6,32,-1,2
-3,-25,-9,0,1,0,23,10,2
5,12,4,1,2,2,-2,10,2
7,4,2,-6,4,4,93,2,2
-1,-2,1,0,-6,-5,-30,-12,2
-4,-19,-9,1,-5,-1,90,20,2
2,9,0,0,-1,-1,-71,-3,2
-9,-13,-9,-1,3,-2,11,-2,2
6,-1,-8,4,-2,-5,7,11,2
6,8,3,2,3,0,-10,-9,2
3,24,10,-3,1,-1,11,0,2
9,23,3,-3,-3,-2,29,-9,2
-4,-11,-10,0,2,-2,-2,-6,2
-20,-7,3,-7,-7,1,48,5,2
-6,-7,-1,-1,-9,-15,-35,-4,2
1,-4,5,5,1,0,58,16,2
6,4,8,2,-2,8,85,-8,2
-15,-6,-7,-1,-6,-14,-41,10,2
3,-7,11,-1,6,-2,-4,-2,2
15,-4,-5,-4,-1,-2,95,6,2
4,-8,-6,9,-6,-7,-128,-19,2
3,11,15,-1,3,1,-15,-7,2
-5,-1,-1,2,2,3,41,5,2
2,4,0,-2,-4,-8,-111,28,2
-10,-12,1,-5,2,1,16,7,2
3,0,1,0,-1,-3,-48,-5,2
3,0,-6,-2,0,6,31,-3,2
-4,-8,-1,1,2,13,19,-9,2
-2,5,2,-2,-1,0,1,-7,2
-2,-2,-5,-2,-3,-3,-10,-6,2
-4,-13,-5,-1,1,-5,-10,-4,2
-21,10,21,-3,-9,-5,79,-5,2
5,-19,-23,0,-5,-2,-38,11,2
17,7,2,-2,7,8,16,-4,2
-16,28,6,-3,-11,-9,30,-14,2
3,-14,-18,-3,4,4,34,-6,2
1,5,10,3,5,-1,-76,-18,2
11,-3,-4,3,7,4,-33,-7,2
-2,-24,-10,1,3,-3,-38,5,2
-16,8,2,-6,-15,-10,5,-5,2
9,20,9,-1,2,7,46,4,2
0,-6,-17,-2,-2,-4,-21,-10,2
-5,-5,19,-2,-1,-3,-54,-8,2
3,-3,-14,5,2,5,15,-3,2
2,4,27,0,4,-2,1,1,2
-3,12,-17,-1,-7,0,40,3,2
1,-6,-8,-2,-3,0,-3,4,2
6,-1,2,3,1,5,10,3,2
-5,11,3,-5,0,0,7,-11,2
20,6,13,7,9,-3,15,35,2
-26,-12,-5,-12,-15,-15,-8,-13,2
9,0,-4,7,-4,-11,-113,12,2
-12,2,-13,-2,-4,5,94,-6,2
2,-9,2,-1,-3,-1,51,-5,2
14,-5,10,1,3,-6,30,-2,2
-11,10,6,0,2,-1,-12,-17,2
-2,-1,-5,-4,-2,-3,-38,-2,2
7,5,6,0,4,6,34,-7,2
3,-10,-7,-1,0,5,17,-15,2
-9,-1,7,-5,-4,-7,-18,-17,2
6,-2,4,3,2,2,23,4,2
-16,5,-3,-4,-8,-6,-42,-24,2
0,0,16,1,3,3,-15,8,2
-14,-17,-14,-1,-6,-4,-54,-4,2
5,3,2,0,6,3,22,-8,2
-1,-6,0,-3,-7,-12,-29,-7,2
8,-1,-4,0,1,4,33,13,2
10,-8,-7,5,8,10,11,17,2
-16,-8,-4,-1,-9,-14,-82,-4,2
10,19,4,-5,12,10,75,-24,2
-25,-1,-15,-9,-27,-28,-96,20,2
16,3,7,6,10,12,39,12,2
6,9,-3,-1,9,8,-5,-13,2
-6,-6,17,1,-1,-1,47,2,2
15,20,-4,1,10,14,-41,-6,2
-16,-8,-6,-5,-8,-3,21,1,2
3,-10,-1,1,-2,0,11,20,2
-7,12,5,-5,0,1,-16,-9,2
1,2,0,4,3,3,55,-2,2
-6,-7,6,-3,-8,-10,-65,0,2
9,17,-14,0,-2,-3,0,22,2
-9,-20,13,-2,-1,6,37,-3,2
6,22,-6,2,9,5,1,-4,2
-21,-31,-12,-7,-22,-26,-25,6,2
-3,7,3,5,0,-3,-17,-8,2
-2,5,6,2,5,2,-50,-13,2
6,-29,-41,3,3,4,39,-5,2
22,38,32,1,14,14,122,6,2
-18,-28,-11,-10,-11,4,58,8,2
5,1,-7,4,-6,-7,-65,-1,2
4,-1,13,-1,9,10,27,1,2
2,1,-12,2,2,3,-48,-5,2
2,-6,0,0,0,2,38,8,2
2,18,11,0,3,1,-40,6,2
-11,-17,-13,-4,-5,2,21,6,2
-4,-21,-11,-2,-6,-12,-78,-2,2
6,15,-2,-2,1,2,66,-8,2
-15,-24,4,1,-4,3,8,-11,2
-1,6,15,1,-2,-7,-32,-15,2
-4,-11,-16,-2,5,11,54,-30,2
-3,-3,-5,-3,3,5,-30,-23,2
-14,-16,-16,-9,-9,-10,27,15,2
17,15,7,8,8,5,-37,1,2
6,1,1,-3,3,12,4,-14,2
-23,-19,-13,-6,-18,-12,78,-7,2
5,-6,-10,2,-3,-2,-43,6,2
11,8,7,0,4,5,11,0,2
-4,6,8,1,2,0,27,13,2
16,0,1,0,10,-5,-83,-19,2
-11,-13,-15,-3,-4,-2,9,-10,2
3,-6,-19,-6,-6,-3,30,2,2
9,8,14,8,5,9,22,-3,2
7,10,1,0,-6,-5,-33,2,2
-5,11,12,-3,-5,-12,-108,-5,2
10,-44,-11,3,10,14,61,-7,2
3,19,-2,-3,-8,-1,66,8,2
1,-2,3,1,-4,-12,-120,9,2
12,7,4,3,9,3,-13,-4,2
-10,11,-4,-6,-4,0,117,11,2
-6,-4,-5,1,-9,-12,-24,2,2
-3,-5,10,1,0,-5,-27,2,2
4,-3,-11,-4,-4,2,48,10,2
-3,12,11,0,0,-1,-52,-6,2
-1,-8,-1,2,3,1,-20,-7,2
-5,2,2,-6,-4,6,105,0,2
10,12,11,2,6,3,25,1,2
-20,-29,-41,-9,-9,-13,-82,9,2
-5,10,-4,0,-5,2,-91,-3,2
-3,-5,16,4,2,1,20,-1,2
3,-6,-10,-6,-3,-2,22,6,2
-2,26,24,2,1,0,45,-12,2
7,2,2,-3,-3,-5,11,19,2
-15,-6,-16,-1,-5,-5,-89,-15,2
4,3,5,5,8,15,39,0,2
7,15,6,1,1,-3,-31,-7,2
1,-6,-7,-1,2,-2,-20,1,2
0,8,8,-1,2,5,27,-4,2
-9,-15,-8,-4,-10,-9,-42,0,2
1,1,5,1,1,6,-22,-4,2
1,1,3,-2,6,10,95,-11,2
-1,-8,-1,-1,-4,9,81,3,2
0,3,-5,1,-1,-7,-69,-11,2
-10,-9,0,-4,0,2,32,3,2
4,37,13,3,0,0,-28,4,2
7,4,-3,0,1,1,10,3,2
8,-5,-17,-2,4,-3,-41,-16,2
-8,-3,4,0,-11,1,32,3,2
-1,-11,5,-2,3,3,34,-5,2
5,4,1,-1,1,-18,-99,-19,2
-9,1,4,3,-3,5,18,8,2
-2,-7,-1,0,1,1,-16,6,2
8,2,-8,-1,-2,0,-16,-14,2
-4,-32,-13,-3,6,5,-44,5,2
0,26,19,0,1,-2,8,1,2
-4,-9,3,1,-5,-6,3,4,2
-1,-2,-3,2,-2,1,10,6,2
4,10,-5,1,3,3,44,2,2
-4,-11,7,-3,-3,-3,35,-8,2
6,1,-3,0,-3,-3,-7,6,2
1,1,9,1,1,-4,-55,-6,2
9,4,0,0,0,0,-23,0,2
-2,-22,-8,-1,-1,0,-77,1,2
-9,32,21,-3,-9,-6,8,-15,2
-5,-31,-9,0,-4,-2,1,-9,2
-3,10,7,1,5,4,10,6,2
-10,-5,-6,-7,-5,-8,-35,-4,2
4,6,-5,1,5,3,8,3,2
6,-8,-4,-4,2,2,69,3,2
-7,0,0,-2,-7,-4,-21,-1,2
4,4,-7,0,-1,0,66,14,2
-9,-11,-6,0,0,-5,-44,-12,2
-9,2,-3,1,-3,0,4,0,2
2,-5,12,0,2,4,20,13,2
-1,4,-16,-5,-2,0,12,5,2
3,6,3,3,3,-1,8,4,2
8,22,8,5,5,2,-15,-6,2
-13,2,-1,-6,-18,-20,-93,-5,2
-1,-18,-17,3,0,0,42,13,2
-7,-13,2,-3,-4,3,53,-9,2
0,5,-9,-1,0,-1,-14,-3,2
-1,-7,9,0,3,4,26,4,2
-4,5,0,-5,-3,-2,21,0,2
12,6,2,5,7,4,-30,-4,2
-30,-27,-15,-7,-11,-12,-6,-15,2
10,-10,-6,2,4,0,-53,-7,2
-7,2,6,6,-8,5,-34,0,2
1,7,-4,0,2,-2,-9,-7,2
9,-8,4,-1,2,-1,-9,5,2
1,4,-1,-3,4,5,34,11,2
-1,-6,-2,-5,-1,-7,2,-23,2
2,0,8,-1,-3,0,-30,11,2
-4,-1,-9,4,2,2,-20,4,2
-1,10,-7,-6,-3,8,58,-3,2
1,7,3,-1,4,-1,-17,8,2
-6,-9,-11,-3,-9,-1,58,-3,2
-1,-2,4,-1,-1,1,-8,4,2
-2,-8,-14,3,0,1,29,-15,2
1,-2,10,2,2,1,17,3,2
12,14,7,1,8,-5,-85,5,2
-9,-11,-11,0,-5,7,-18,-21,2
4,8,15,0,-4,-16,-20,-5,2
-17,-7,-19,-7,-10,2,95,-4,2
-2,2,5,-3,-5,-11,-72,8,2
12,6,9,0,2,3,10,0,2
2,12,9,1,1,4,10,-11,2
-1,-24,-12,2,6,-2,-41,-13,2
3,23,-9,-6,1,3,48,-4,2
6,5,11,0,-4,-3,40,3,2
-1,4,-16,0,-1,-7,-60,-12,2
-6,5,12,0,3,1,-15,10,2
-2,-14,-7,-2,-7,1,36,-12,2
7,5,-1,3,2,-1,-27,1,2
-6,-8,0,-3,-4,0,47,-3,2
6,11,6,1,-2,-8,-32,-14,2
-3,-9,-4,-1,0,2,25,6,2
-8,-1,0,-1,0,-2,51,-6,2
0,-6,4,0,5,5,6,14,2
-2,10,-4,-3,-6,-4,-36,-4,2
-7,-25,-7,3,1,-1,-41,4,2
2,17,7,-3,-2,-2,18,3,2
4,24,23,2,-1,3,5,3,2
11,-6,-14,-3,9,5,32,8,2
-1,20,3,-3,-5,4,30,-12,2
-8,-25,-5,0,-1,-2,10,8,2
-5,-2,-6,5,-3,-2,61,-9,2
6,0,-2,-3,1,0,-44,-3,2
0,-8,3,4,3,4,58,17,2
0,3,-9,-5,-6,-10,-113,7,2
-8,-11,0,-2,0,6,32,-10,2
-5,3,1,-1,0,3,46,-5,2
12,-3,-4,2,3,5,2,11,2
-6,2,0,-5,-5,1,11,3,2
10,-15,-7,-3,1,-5,-1,15,2
-2,14,8,-2,-2,2,6,-3,2
-12,-9,-1,-3,0,-4,-2,-1,2
10,1,3,8,4,1,-47,1,2
-12,-8,-7,-5,-4,-1,46,-1,2
2,-10,-1,0,-1,1,1,6,2
7,4,2,0,0,-4,1,24,2
-4,-11,3,0,-9,6,34,-10,2
-10,-1,-7,-2,-3,-7,-66,-6,2
15,5,10,1,7,2,-6,13,2
8,-11,-21,1,9,10,68,23,2
-15,6,18,-6,-13,-16,74,-23,2
5,-12,-7,5,-4,7,-3,4,2
1,-18,-13,-2,-5,-4,7,31,2
-4,-1,-8,2,-1,-2,-1,-34,2
4,-4,14,2,13,7,41,0,2
13,6,3,1,3,7,-22,4,2
-13,-9,-5,-2,-10,-3,52,-24,2
-6,-4,0,-7,-4,-3,-53,-10,2
-1,-3,-17,-3,-2,-3,-45,1,2
1,4,9,-4,1,2,-11,-9,2
0,5,-8,2,5,2,-2,1,2
-4,4,6,2,-1,-1,18,-8,2
18,11,3,-1,3,7,-1,30,2
-4,3,-14,0,-7,-9,10,-2,2
-4,-21,-6,0,0,0,-2,12,2
4,25,26,0,-1,-4,-44,-15,2
0,-39,-18,1,3,10,38,-9,2
8,18,3,-8,-6,-15,21,3,2
-7,-1,-19,-12,-7,-2,3,-12,2
0,-1,-3,9,1,3,-11,-5,2
1,3,-44,-20,0,1,34,10,2
-9,-6,23,14,2,-4,12,0,2
-11,2,56,30,-6,-10,13,-4,2
-15,-5,41,-10,-8,-1,3,-14,2
7,6,22,14,0,-1,-39,-1,2
3,-5,-22,-17,3,7,38,-1,2
-3,6,-28,-19,1,-1,19,-11,2
6,-4,-20,6,1,1,-6,12,2
-5,6,-10,1,-1,-5,-30,-14,2
-5,-2,-10,-4,-1,2,-29,-9,2
5,9,6,3,7,14,96,-14,2
-10,-10,-20,-8,-18,-20,-4,1,2
-13,-6,1,4,3,-2,-13,-34,2
9,25,24,4,-2,-4,-54,11,2
9,-8,-3,-4,-1,-4,-43,30,2
-11,15,3,-7,-4,1,46,-12,2
-25,-6,-25,-4,-17,-17,-95,-11,2
-8,-6,7,0,9,9,10,-23,2
-10,2,5,-4,-2,1,22,-13,2
10,-18,-2,7,-3,-2,-26,0,2
9,7,18,1,6,6,27,-2,2
-1,-7,-6,-4,-2,2,20,-8,2
0,7,3,-1,3,6,-46,-20,2
-2,-18,-12,-7,-2,-2,113,15,2
-1,9,3,2,1,0,-97,-19,2
3,-2,-6,0,3,2,-14,-7,2
-2,5,-5,-7,-6,-3,87,6,2
3,-6,6,7,2,4,-7,9,2
-2,-3,1,0,2,-4,27,7,2
0,-4,-5,0,-1,6,-2,5,2
-5,2,5,3,5,-2,-68,-24,2
1,4,-1,-2,4,6,-6,-2,2
5,1,-1,-2,-3,-2,42,15,2
-9,-5,-15,-3,-2,-7,-37,4,2
5,4,17,3,0,0,18,10,2
-3,5,-3,-1,-2,-6,-64,-19,2
-13,-1,-20,-3,-2,-7,-8,12,2
9,26,2,3,-1,-1,-29,-11,2
0,-18,-8,0,-1,13,31,-1,2
4,14,-7,-6,-4,-9,11,20,2
2,-1,-9,4,5,0,-51,4,2
-6,4,-3,-3,-4,-2,-21,11,2
-1,-9,-2,-2,1,-6,-13,-3,2
11,9,9,5,6,5,-2,-43,2
14,0,7,-2,0,7,-12,4,2
-7,-19,-8,-2,-4,-2,58,8,2
4,19,9,1,-2,-8,-98,13,2
-1,-6,1,5,3,7,48,3,2
11,10,10,3,2,2,10,2,2
8,-14,-3,2,3,-4,-13,-9,2
-11,7,0,-10,0,-6,-3,-10,2
-8,-10,-19,-1,-8,-2,-19,-7,2
-3,-4,-1,-2,-3,-1,76,-12,2
-3,6,2,1,0,6,27,0,2
1,-5,-13,-2,4,-4,-58,-11,2
2,1,12,2,1,4,-3,-4,2
-7,-1,11,2,-2,0,-11,-11,2
18,-2,11,-1,4,-2,17,-4,2
-3,-22,-20,-5,-7,4,26,-3,2
5,0,-4,1,0,1,-99,14,2
5,12,10,6,3,0,-18,-5,2
1,6,4,-4,-2,-1,1,-7,2
-10,-3,1,3,-1,0,-20,1,2
-10,-22,-2,-4,2,1,37,-20,2
2,1,0,2,-1,2,36,14,2
-8,-15,-4,-5,-1,2,-37,-9,2
-2,19,-1,-1,-2,3,54,-1,2
1,0,1,0,-3,1,-32,-2,2
6,7,3,-4,-2,-1,-1,-5,2
-11,-14,1,2,0,1,31,-5,2
7,-3,-5,0,1,-1,7,8,2
-4,14,27,3,6,-1,-53,17,2
2,-28,-19,0,5,7,-11,-12,2
-12,1,-3,-8,-12,-3,-59,13,2
-8,-3,4,-2,-5,2,40,-7,2
-7,-7,-22,-2,-3,-6,12,2,2
1,-1,21,-1,3,1,32,0,2
5,9,-7,3,7,9,6,-5,2
3,5,9,1,2,-3,15,12,2
0,2,-10,-3,-3,5,92,7,2
-12,-17,-12,-3,-9,-4,19,-7,2
5,8,5,7,-1,0,17,-14,2
-2,2,9,-2,-1,-4,-58,-10,2
1,2,-3,-1,-3,-4,12,0,2
6,3,-5,-2,0,-3,-12,-6,2
-5,-5,-1,-3,-1,-4,24,9,2
11,1,2,7,5,2,-80,-11,2
-6,-11,-2,-3,2,-2,35,12,2
8,18,29,2,-4,-6,-51,2,2
-6,-5,-1,-1,-3,-3,49,3,2
4,16,-6,-5,-5,-4,-19,-6,2
-3,-10,-4,1,1,2,-20,-11,2
-2,-1,-6,0,0,0,30,-1,2
-3,-3,-1,-2,2,-3,-9,-11,2
6,9,11,1,3,-2,-27,-23,2
16,-3,-7,1,2,12,77,-12,2
-25,-6,-9,-5,-12,-18,-83,-1,2
-3,-19,-16,0,-4,-2,17,-9,2
-6,8,-6,-6,-10,-3,79,-5,2
0,9,16,5,0,2,-36,-8,2
8,2,1,1,4,5,53,-10,2
1,-5,2,-3,2,-1,-14,-14,2
-5,-15,-3,-1,0,-3,-2,9,2
-1,0,1,-1,-1,-4,-18,6,2
5,5,0,3,1,1,-19,12,2
6,3,27,4,-2,8,37,8,2
-6,-7,-12,-5,-3,-8,-6,25,2
-8,0,1,-1,-8,-1,-22,-2,2
3,-21,-4,3,4,2,-33,2,2
0,6,-5,-4,0,2,12,-1,2
9,2,2,3,7,5,1,-1,2
-2,2,1,-3,2,1,7,0,2
-5,5,1,-3,-5,-2,19,-6,2
5,12,-1,0,3,-4,-11,-2,2
-8,-16,1,-4,-2,-5,-45,7,2
-22,-22,-23,-4,-13,-7,45,-15,2
4,-3,-4,1,-2,4,-15,-6,2
-1,4,-2,-2,0,-4,-16,-6,2
8,-1,1,3,5,2,-9,1,2
-8,3,5,-2,0,-8,-62,-9,2
2,2,0,2,-2,6,63,-8,2
-10,-9,-7,-2,-3,-7,-16,-6,2
3,0,2,4,0,-2,-17,-3,2
7,8,1,-1,2,1,2,3,2
-1,-7,-19,-1,-2,2,19,-1,2
2,15,0,-5,-4,-3,-14,2,2
-8,-18,-3,-3,-2,1,-15,-10,2
11,5,6,9,5,8,57,6,2
-16,0,1,-4,-7,-12,-113,-1,2
-1,-6,-5,2,0,0,-16,-6,2
2,-8,0,-3,-3,5,69,7,2
-3,5,5,1,-1,-4,-45,2,2
5,-1,-4,-1,1,1,36,-1,2
0,4,-1,-1,4,2,23,2,2
-3,-1,8,-3,-4,0,6,-2,2
4,3,2,2,2,-1,-16,-10,2
-7,-17,-16,-5,-7,0,72,-9,2
0,21,27,2,-4,-5,-17,2,2
8,6,2,5,4,5,34,-7,2
-5,0,-1,-4,-5,0,71,6,2
1,1,-1,-1,-1,-9,-81,-4,2
-1,-8,-6,-2,-1,1,-24,-1,2
-6,-2,-8,-1,-3,1,22,-2,2
6,8,7,-2,0,-2,-6,-12,2
-9,-13,-12,1,4,4,16,-1,2
-3,-17,6,-5,-4,-8,-77,-13,2
-3,-6,-1,3,-6,1,72,4,2
-7,-9,-11,0,-3,-2,-68,3,2
4,9,6,0,-4,-5,-47,-3,2
5,0,-1,1,4,3,29,-10,2
-2,1,-4,-3,3,0,-32,0,2
4,3,2,-1,-3,-2,20,-7,2
-3,-1,10,-1,0,-1,33,-5,2
-2,-4,-10,-4,-2,-2,81,14,2
0,9,1,1,-2,-5,-44,-16,2
2,-3,-8,-2,-1,3,16,-4,2
5,12,9,2,4,3,2,-5,2
-3,-4,-7,-3,-1,1,-4,-4,2
-4,3,-2,-3,3,-1,29,1,2
-6,-17,-9,0,-5,-4,-44,3,2
2,3,-15,-3,-4,0,48,8,2
6,12,4,3,-2,-1,-27,1,2
-6,-10,-9,-1,1,-6,-14,7,2
0,3,4,1,1,4,-14,-7,2
2,-5,4,-1,-2,-2,44,6,2
-4,-5,1,-2,-1,-4,-21,5,2
-1,-4,-13,-8,-2,0,15,-12,2
-1,2,-18,2,5,1,-1,-6,2
-2,-5,8,-1,1,4,-12,-7,2
5,4,7,1,0,2,17,-10,2
8,29,10,-3,-1,3,33,2,2
-7,-8,-2,-3,-3,-3,18,-9,2
-2,-4,-7,-3,1,2,-9,-4,2
-7,-5,-9,-3,-1,1,56,-17,2
1,-15,4,5,-2,-1,-17,5,2
10,8,12,3,3,0,-23,0,2
-2,0,-10,0,1,1,15,-5,2
-2,1,-9,-3,3,0,-14,-1,2
-4,16,26,-2,-8,-7,-16,5,2
3,9,3,0,2,2,35,20,2
-8,-12,4,-7,-9,0,24,-8,2
-2,7,-1,2,1,-5,-79,24,2
-14,-21,-20,0,1,-1,2,-18,2
3,6,6,-1,0,-5,-124,0,2
-8,-5,-9,-4,-7,-1,110,5,2
-7,-10,-5,1,0,1,17,0,2
16,16,14,5,6,6,-38,-5,2
-14,-6,5,-3,0,-1,17,10,2
4,5,17,-1,4,0,-91,5,2
-4,-19,-40,-7,-4,-3,-7,-2,2
3,9,13,2,-2,-7,-15,11,2
1,4,2,3,-9,-4,33,5,2
1,7,1,-3,-1,1,0,-8,2
-6,-8,14,2,-1,-4,-46,-13,2
13,0,-7,0,10,11,14,25,2
-8,-12,-14,-6,-10,2,31,10,2
-9,-5,4,0,-3,-1,62,-21,2
16,14,7,5,11,0,-29,7,2
-12,-6,-11,-12,-6,0,-13,-17,2
-7,-9,-6,2,-20,3,81,-18,2
8,-7,-15,8,2,-22,-94,16,2
-16,-17,-1,-11,-9,7,105,9,2
22,30,22,12,26,0,-111,2,2
-2,-59,-10,-3,-2,16,73,8,2
7,31,25,-2,-4,2,-72,-17,2
-6,4,-31,-2,-2,-9,11,-20,2
-4,-13,-10,-1,-5,-7,7,7,2
7,-57,-10,4,12,-1,-51,-7,2
3,54,9,-7,2,2,44,-1,2
21,41,45,3,0,7,-36,10,2
-9,14,-5,-8,-3,19,127,-31,2
7,15,-4,12,6,-9,69,9,2
5,-28,-13,13,-6,-19,-106,-23,2
-39,-32,-16,-12,-26,-10,127,24,2
6,-15,-7,3,1,0,-19,0,2
23,35,19,-4,10,-4,23,9,2
12,2,10,6,13,1,-90,5,2
-10,-1,-4,-8,-6,-7,-28,7,2
-13,-20,-8,0,-9,-9,16,-9,2
11,19,2,-5,-3,2,-13,-11,2
-6,3,-1,-1,-2,-7,-48,4,2
12,-4,9,0,3,4,-31,-22,2
-16,-15,-23,-5,-8,-6,-69,1,2
-6,14,1,-1,-2,3,27,-13,2
-4,-14,-7,0,3,12,79,-1,2
19,0,12,8,12,2,-24,-6,2
-4,15,27,-2,-7,1,9,-11,2
4,39,9,-1,3,-1,-9,0,2
-4,-14,-13,3,-7,-2,-36,-7,2
-4,-16,-11,-3,-3,-1,-7,17,2
13,8,0,0,2,2,8,-7,2
-20,-9,-7,0,-1,-5,-29,3,2
10,1,6,-8,6,18,127,-1,2
5,7,-13,4,-1,-5,31,-16,2
2,-6,-1,1,1,-1,11,11,2
1,3,2,-4,-4,4,21,16,2
0,-7,-5,1,7,4,3,14,2
5,3,6,-5,-2,-4,2,5,2
-22,-10,-11,-1,-10,-12,31,0,2
-4,0,0,0,-4,-3,-23,-11,2
-6,2,2,-2,-2,-3,-26,-15,2
-8,-7,-9,-5,1,-5,-56,-24,2
-2,-6,3,2,1,4,-19,-5,2
6,0,-5,1,3,1,-31,-18,2
4,3,8,-2,-2,4,58,-3,2
0,4,-1,0,-1,-13,-55,-12,2
23,-14,-10,2,1,2,-73,-2,2
-31,-8,-8,-5,-8,-19,-71,-7,2
2,-13,-5,0,-5,3,53,11,2
-2,3,5,3,8,9,6,-12,2
1,6,4,-3,3,-1,9,-1,2
12,7,10,2,2,0,-26,4,2
-8,-1,-4,0,-4,-8,-54,-6,2
4,0,4,-5,1,-3,-6,-4,2
-11,-4,-3,-1,-5,-2,-20,3,2
10,3,8,0,-5,0,-12,-12,2
6,8,1,-3,1,-1,-28,13,2
0,0,1,2,3,11,28,-6,2
-1,-1,-5,-1,3,3,25,-6,2
2,7,7,-2,0,0,11,4,2
1,-20,-5,2,1,-3,10,-1,2
-1,8,-1,-2,1,1,-3,11,2
-1,2,7,-3,-1,8,55,-3,2
-7,-7,-12,-1,-5,-13,-128,-4,2
-4,2,-14,-2,-5,4,122,-5,2
1,-12,5,2,1,8,65,12,2
-2,5,5,1,-2,-10,-49,14,2
-13,-22,0,-2,-2,10,126,-8,2
-7,-15,-2,2,-1,-3,-43,-15,2
-2,-3,-7,-5,0,-8,-57,0,2
7,21,6,3,-1,0,-52,1,2
0,-18,-7,1,-1,2,9,7,2
-5,3,-2,-7,-5,-4,30,-1,2
-5,-4,0,1,-7,0,-15,-9,2
9,-8,-5,2,2,-3,-46,9,2
3,6,-3,-2,1,-1,-6,18,2
0,-8,15,3,7,2,26,14,2
8,26,-2,-2,3,5,54,-7,2
-9,18,-5,-3,-10,-6,21,-12,2
-3,-13,-9,-1,-13,-10,11,-4,2
4,16,12,0,3,1,-51,-7,2
-7,-17,-5,1,4,4,-21,-5,2
-1,-21,-1,-2,6,1,80,-4,2
-6,0,-2,1,3,4,-38,-15,2
-2,7,-6,-8,-4,-3,4,-10,2
0,-2,4,3,-1,-4,-30,-5,2
-8,-3,-2,-3,-6,0,20,-7,2
4,6,2,0,-1,-4,0,11,2
-4,-3,0,-1,1,-2,-16,-40,2
-4,6,2,0,-2,-4,-70,-6,2
-5,-11,2,-1,1,6,7,-2,2
-4,3,-2,0,-2,-3,62,-10,2
3,2,-8,-1,-3,3,10,5,2
0,3,16,-2,-1,-2,-42,-4,2
-5,-26,-33,-2,0,1,53,-5,2
14,23,10,6,11,4,-77,-1,2
3,-8,-14,-5,-6,0,-13,1,2
-5,-2,-1,-2,-1,4,57,15,2
-3,9,8,1,-6,-7,46,3,2
13,0,-3,2,7,2,-96,-3,2
-17,-9,5,-5,-4,-10,5,13,2
0,-5,-13,-4,-4,1,9,1,2
1,-4,-4,0,1,-2,-30,0,2
0,6,3,4,-1,3,23,-10,2
-1,9,3,-1,2,3,-24,-12,2
-2,-15,-2,-4,-2,-6,-10,-7,2
-4,8,0,-2,-2,0,15,1,2
2,-2,0,-3,1,4,13,-15,2
5,5,2,2,0,1,61,12,2
-5,8,2,-2,-6,-10,45,6,2
11,-9,-9,5,-1,5,18,-4,2
-2,8,4,-3,2,1,6,5,2
2,-6,-11,1,3,1,16,-6,2
8,-5,-1,2,3,2,34,-9,2
-4,14,7,-4,2,1,-29,-5,2
-5,-3,-7,2,-6,0,58,0,2
0,-3,2,0,0,1,-11,-16,2
-2,2,1,-1,1,3,7,-9,2
10,5,6,-1,4,1,-14,-4,2
-17,-8,-7,-8,-11,-17,48,10,2
0,-1,-2,-1,-6,-2,-47,-20,2
4,6,5,-2,1,2,6,-3,2
-6,-5,-1,1,-4,-2,-13,-12,2
5,6,4,-2,3,3,-8,-23,2
-2,2,2,0,0,-4,23,10,2
0,-4,-3,-4,0,0,18,0,2
-7,-12,9,2,-1,-8,-85,3,2
8,3,-2,-1,3,6,-5,-3,2
-3,-8,-7,0,-1,2,11,-2,2
2,20,21,0,0,2,-3,-3,2
-5,-11,5,0,-2,1,58,1,2
7,18,9,1,1,1,-2,-3,2
2,-5,-11,-4,1,0,1,8,2
-3,-6,-8,-2,0,-7,-25,4,2
2,6,1,-1,-2,-1,35,3,2
-5,-14,-1,2,1,1,-13,4,2
0,2,-3,0,0,-3,14,-2,2
-5,-2,0,3,-1,-2,-33,-6,2
0,3,0,-5,-1,-4,-32,0,2
0,-12,-6,-1,0,6,21,-5,2
-7,2,3,-4,-1,-4,15,2,2
-6,-10,-5,0,-3,0,-20,-9,2
3,2,-1,3,0,6,38,5,2
-2,-3,-6,0,-3,-6,25,-1,2
-5,3,-1,0,-3,-4,-16,-12,2
13,14,8,-2,6,0,-42,-1,2
-6,-9,-16,0,-4,2,27,1,2
5,2,-2,-1,4,4,-32,-2,2
-11,-6,3,-5,-2,1,4,-4,2
-5,-7,-7,-1,-2,-4,-16,-10,2
2,8,0,0,0,0,6,-1,2
0,-3,9,3,1,-1,11,5,2
1,8,-16,0,1,-1,4,-10,2
-6,-9,-13,-3,-6,3,52,-8,2
-6,-6,11,-2,-3,-7,-46,-12,2
-4,-2,3,-2,-6,-6,23,-2,2
10,-1,3,1,2,4,-34,4,2
-2,3,-3,1,0,0,11,-7,2
-3,-2,-5,-1,-1,-2,-33,-2,2
0,-1,-6,0,0,3,-14,3,2
0,-4,2,0,1,4,-26,-6,2
-2,10,9,-4,-2,-5,21,11,2
5,0,-1,2,-2,1,-63,14,2
-9,-8,-5,-6,-4,-3,71,1,2
-3,-1,9,0,-4,0,-48,2,2
-1,-12,-2,3,2,3,-19,-5,2
-1,5,-3,-2,0,-3,16,4,2
2,-13,-12,0,2,-2,-41,-10,2
3,4,6,-2,8,7,13,-10,2
-5,-10,-7,2,-9,-2,56,2,2
8,5,8,-1,3,2,-7,-13,2
-7,-4,-10,-4,-6,-6,5,1,2
3,-2,-5,-1,4,0,-16,-1,2
5,6,13,-1,1,-3,-28,-2,2
-4,3,3,2,-1,0,19,4,2
-5,-8,-22,-3,-1,2,9,-4,2
-6,1,2,-5,-4,-5,49,11,2
-6,-4,1,3,-2,1,27,-14,2
-4,-6,-16,-2,-5,-5,-56,13,2
6,10,12,4,4,4,-5,-6,2
-3,-10,11,3,0,-1,-71,-3,2
8,3,-10,-3,1,-1,-6,17,2
-9,-7,1,-1,-1,-8,-45,-10,2
5,0,2,-3,-3,3,-24,6,2
6,3,-9,-1,-1,2,44,13,2
-1,-6,-3,-2,4,-3,-45,7,2
-1,28,3,-3,-3,2,97,3,2
1,5,6,3,2,2,-16,1,2
-1,0,0,2,-1,-4,-6,-15,2
8,-2,1,-1,5,6,1,-6,2
4,1,6,3,4,0,-62,-9,2
0,-15,-20,-6,-9,-1,58,1,2
-2,1,-1,0,-5,-2,5,4,2
-2,-3,-4,1,2,2,-21,-11,2
8,-6,2,2,3,5,42,-8,2
30,15,11,5,15,7,9,21,2
-27,-6,-3,-1,-11,-7,-14,-12,2
2,-6,-4,0,-4,4,7,-12,2
-7,-3,6,-1,-3,-3,6,0,2
3,9,-5,2,1,-1,-37,0,2
7,-1,-4,-3,2,-3,12,-6,2
-13,-13,-7,-6,0,-6,5,-8,2
2,4,-5,0,-4,3,9,3,2
-32,-6,8,0,-2,-4,-18,-13,2
7,-2,3,-1,-1,2,66,-2,2
3,9,2,0,-3,-1,-39,12,2
11,7,17,1,6,2,-19,-18,2
-19,-52,-33,-5,-5,0,-31,4,2
-4,31,3,-4,-4,2,91,-11,2
8,-1,6,4,3,5,-14,-2,2
-20,-9,-9,-8,-12,-29,-100,31,2
4,7,4,2,-7,1,24,-21,2
2,-19,6,1,8,0,-54,-10,2
7,15,-7,-6,-3,-4,15,15,2
-5,-8,-3,2,3,7,6,-19,2
-2,14,9,-2,-1,-5,-6,-16,2
-3,-8,-10,-1,-2,-1,-18,5,2
-19,0,3,-2,-2,0,33,-10,2
6,1,-1,5,0,2,15,4,2
-16,-9,1,-2,-2,-5,-75,-8,2
21,11,9,4,11,19,61,-3,2
-15,-11,-4,-4,-9,-14,91,11,2
-5,-9,1,-2,-8,0,87,13,2
-4,-18,-17,1,2,-2,-83,-17,2
4,13,-2,-4,-4,-7,-42,-4,2
25,14,5,9,14,11,3,-10,2
-5,-4,-5,-5,3,2,-31,-8,2
-7,9,7,-4,-14,-1,24,18,2
-1,-19,-15,3,-7,-17,-128,-13,2
-5,-17,1,-3,0,3,14,3,2
12,11,3,4,4,7,28,-8,2
13,14,0,3,5,-3,12,17,2
-7,10,-8,-4,-1,3,54,7,2
4,5,-2,-7,-6,-3,-9,-20,2
-10,-20,-11,3,1,-3,-75,-26,2
9,12,19,-2,3,12,123,3,2
10,-4,8,0,1,-1,-63,-6,2
-16,-7,-16,-3,-11,-10,43,-12,2
4,3,1,-5,1,10,87,3,2
15,-3,5,1,7,4,31,-11,2
8,41,30,2,6,4,7,4,2
-6,-10,-10,2,1,4,-106,-20,2
3,18,11,-1,8,-6,-5,27,2
-16,-11,-9,-6,-16,-1,45,-13,2
19,-16,-4,6,10,10,93,8,2
-4,5,8,1,-4,-13,-111,3,2
10,5,-1,-4,3,11,127,-5,2
-2,-1,6,1,-1,-7,-3,-9,2
-21,-10,-6,-4,-7,-24,-96,-11,2
-5,11,-5,-6,-6,-2,76,-6,2
7,1,-4,3,-3,-4,25,-23,2
10,-6,7,7,4,5,-7,6,2
-32,-37,-20,-9,-10,-5,-48,-15,2
6,5,9,4,8,5,-9,9,2
-6,0,-3,-5,-9,-2,8,0,2
4,9,8,1,-2,-2,59,3,2
-5,-36,-17,4,2,-6,-74,2,2
-5,33,8,-1,-4,-4,-17,24,2
