5,-25,-30,-1,-2,1,44,-23,4
-19,-2,-2,-2,20,0,-70,-41,4
15,12,17,5,-19,9,21,42,4
-50,-9,-8,-13,2,-32,-80,0,4
41,10,12,5,-3,16,110,5,4
0,-4,5,4,-7,3,-97,-19,4
-33,-16,-17,-11,51,-25,91,-44,4
-1,-6,-5,3,-3,1,-23,-32,4
-29,-23,-4,-5,10,-7,-81,-51,4
-37,-20,5,-3,6,-2,58,-40,4
1,14,19,3,-10,6,-95,8,4
25,-38,13,11,-26,5,-61,32,4
2,2,0,-8,18,2,-20,73,4
-16,46,4,-1,5,-14,60,-62,4
-9,-46,0,-1,16,-18,-96,-56,4
8,-18,-7,-4,6,3,-10,61,4
14,-10,-18,-4,-18,2,93,-6,4
-33,-4,-21,-8,-29,-28,-102,5,4
6,9,-10,-4,8,5,99,-17,4
44,29,14,11,3,22,100,3,4
41,10,24,23,-31,29,81,35,4
15,2,-3,-8,44,-1,118,40,4
-19,6,-2,2,-5,6,81,-4,4
32,20,25,7,-9,11,123,30,4
-25,0,-7,-7,26,-28,-17,-62,4
24,0,15,-3,-20,24,12,41,4
-24,-57,-28,13,-8,14,71,26,4
-17,84,2,-8,12,-33,-5,-73,4
-2,-36,-11,-5,13,11,24,51,4
36,24,31,-12,-8,38,103,6,4
-14,-9,-8,-34,-5,-31,-85,0,4
-7,2,21,28,-47,14,5,68,4
-35,47,20,83,-26,5,-16,64,4
23,0,19,17,-6,-19,-79,8,4
19,24,-6,-6,-8,1,-9,39,4
-39,-34,-11,-37,4,-7,-35,-5,4
19,8,4,-27,-14,2,6,-5,4
-25,-16,-16,1,19,-32,-67,11,4
8,-3,8,-5,8,0,21,-14,4
14,-10,-9,5,-1,3,15,-45,4
-27,-13,1,-13,19,-20,-124,-31,4
4,9,-6,7,1,14,92,2,4
-13,-2,-6,-9,13,-19,-41,-33,4
-7,4,-4,-2,20,-7,-33,25,4
20,-21,3,5,-28,16,55,44,4
1,34,-7,-11,14,-3,-7,23,4
24,9,5,12,8,17,30,41,4
15,-2,-1,4,1,16,127,83,4
20,1,10,-10,-2,1,-27,-10,4
32,19,7,11,-11,1,-16,100,4
-41,-23,19,2,35,5,-25,-65,4
-3,-45,-23,-8,22,-25,-42,-10,4
24,-3,4,-16,4,9,43,16,4
3,-7,-29,16,-15,9,61,2,4
-5,-43,-21,3,7,-11,-93,-71,4
-26,39,35,-5,4,-14,-15,65,4
-30,-15,-17,-12,19,0,127,-84,4
10,-38,18,3,7,26,110,-22,4
-4,46,18,-5,-22,-21,-30,41,4
14,-11,-21,3,4,15,44,4,4
24,13,1,3,10,-15,-35,-29,4
-29,-3,-1,-9,0,-16,-47,9,4
19,24,5,13,-3,22,7,13,4
4,-10,-5,-2,-6,2,0,-12,4
5,15,7,-2,-12,11,-11,62,4
-5,-13,-10,-10,6,-13,-36,-43,4
3,1,-9,-3,-6,-4,20,-31,4
-4,4,0,3,-10,7,-3,-20,4
-7,-19,-8,-8,13,-10,10,18,4
16,32,12,5,-10,1,-35,50,4
27,8,-30,6,-11,22,114,84,4
-33,-83,-21,-9,0,-30,-100,-100,4
17,95,29,-7,13,5,38,18,4
-22,-60,-7,-5,17,1,-3,-84,4
-13,6,5,-1,24,-11,100,-61,4
36,-22,4,7,-11,25,-52,39,4
5,-31,-17,1,4,-8,-92,26,4
-12,26,17,0,-3,-10,-28,-14,4
-20,15,-1,-6,-9,-6,-4,4,4
-10,6,-9,-3,-11,3,69,6,4
-4,-14,-8,-2,18,-2,-37,-16,4
14,21,14,2,-7,8,-14,65,4
-76,-49,-16,-6,0,-8,-17,-92,4
3,20,1,1,-8,4,-12,20,4
13,-4,4,6,-8,12,18,57,4
2,-6,-8,3,-4,0,-62,-28,4
-6,2,2,-7,5,-30,-110,50,4
-13,14,-16,-2,4,-2,12,-36,4
-20,-22,7,-3,-2,2,62,-24,4
3,-28,-7,7,-9,20,38,16,4
18,10,4,1,20,3,-77,19,4
5,-3,-6,4,-16,-6,-66,67,4
-25,52,5,-8,33,-20,-109,-44,4
-44,-83,-21,-18,38,-25,76,-67,4
22,0,-5,-4,9,10,19,46,4
7,47,16,10,-6,8,10,30,4
-9,-80,-20,-2,-13,3,4,-8,4
-5,87,16,-2,-14,-8,-31,15,4
14,-31,-1,-2,-2,2,94,12,4
1,-4,-3,1,3,-1,2,-31,4
-2,7,-2,-2,-26,-13,-101,-4,4
-6,-13,-10,-5,-4,2,123,-12,4
18,4,4,3,-36,-1,-54,19,4
31,11,5,-1,7,9,9,-31,4
14,-4,-1,0,-17,-8,12,16,4
3,-13,-9,-1,-14,-5,-26,9,4
27,33,15,6,-15,14,38,55,4
-31,-29,-6,-6,20,-5,16,-26,4
7,5,-3,3,-16,7,68,64,4
11,10,-4,0,-2,-9,-23,21,4
-23,-9,-3,-2,14,3,82,-82,4
2,31,33,5,-24,0,53,-26,4
7,8,-34,-9,-21,7,6,-5,4
-7,57,3,0,13,3,-28,-17,4
6,-54,-5,1,-11,4,-39,11,4
0,-36,-3,-1,18,-6,7,14,4
6,9,10,0,6,0,4,-16,4
13,-3,9,10,-3,-1,-44,-12,4
-56,-19,-24,-17,17,-24,-39,-64,4
7,19,-8,-11,15,6,48,-37,4
-14,-20,-2,7,5,-1,16,15,4
17,7,2,4,-4,7,19,9,4
-3,7,11,10,-7,5,-60,11,4
-51,-25,-21,-13,17,-20,75,-23,4
6,7,5,-1,12,-2,-16,21,4
18,-8,0,1,-4,2,-69,23,4
8,26,12,0,-11,-3,87,14,4
-19,-6,-7,1,-2,7,-13,49,4
7,8,-15,0,16,3,25,-38,4
-10,-18,-11,-6,-15,-4,-21,-15,4
-6,28,-5,1,10,0,17,16,4
-9,-50,0,4,-1,1,-54,-9,4
-4,-24,-3,-1,-37,16,75,43,4
72,38,0,0,3,0,-12,41,4
-21,2,6,0,19,3,17,8,4
-12,13,-7,12,8,-2,4,9,4
-1,6,8,-2,22,-9,-32,-16,4
-20,29,5,-3,1,9,42,-12,4
-16,0,0,7,-35,1,22,24,4
-1,1,-3,-19,20,-11,-32,40,4
19,-16,-13,4,11,7,37,-10,4
-30,10,6,-19,25,-7,-27,-17,4
37,25,-3,13,4,9,56,40,4
18,18,3,4,-18,7,-30,2,4
20,13,11,4,-1,2,58,57,4
2,-34,-22,-3,5,-4,-10,4,4
-8,-19,-7,-6,4,-3,-37,17,4
6,6,3,-1,-14,-1,33,8,4
2,15,10,-1,-5,6,10,5,4
-24,-41,-12,6,5,-10,-41,-23,4
4,12,10,-7,-6,-4,-19,-22,4
37,15,3,3,3,3,78,12,4
-29,-16,1,-4,1,-7,-33,-43,4
5,8,5,6,3,8,35,23,4
29,18,-24,1,-31,1,35,-55,4
17,-9,25,-4,1,7,-9,19,4
-21,-7,0,-6,24,-33,-106,-12,4
-4,5,5,4,-33,15,127,28,4
-17,-24,-8,-5,-7,-8,-36,-6,4
14,27,-9,8,31,11,-13,67,4
-14,3,-5,-3,-24,3,27,40,4
0,-15,0,-1,0,-7,-29,11,4
4,38,22,1,20,3,-70,9,4
-4,-27,-15,1,-10,-1,22,-24,4
-3,23,22,-2,17,-4,-16,-16,4
0,-11,-5,1,7,-1,49,-5,4
35,-5,2,7,-10,9,12,26,4
-17,-1,-4,-32,-15,-15,-72,37,4
-5,2,1,9,11,1,19,-50,4
-7,-2,-3,-11,26,-11,0,-74,4
-31,3,-12,-8,19,-8,-44,-66,4
0,-21,-7,6,-3,-6,-33,42,4
2,-20,-8,-4,-5,3,23,-3,4
6,5,0,1,-5,4,-5,5,4
-10,-16,9,-1,1,3,-2,19,4
15,1,5,11,-23,8,74,-36,4
-9,-5,-7,-5,-3,-3,-23,-37,4
-4,-6,2,3,-22,3,9,6,4
38,60,41,5,-15,6,18,60,4
1,-14,3,9,-42,0,35,-79,4
14,-2,20,-1,2,4,24,-1,4
-5,2,-3,-5,-14,-6,-36,-4,4
5,-22,-6,-2,-6,2,37,-3,4
-13,2,4,2,-5,0,-60,-38,4
-5,14,4,1,-3,-7,-20,-2,4
9,-16,-5,0,-10,4,39,-28,4
-34,-15,-7,-4,5,-20,-78,-44,4
9,11,3,9,10,10,24,31,4
-12,4,-10,-8,4,-12,-60,45,4
-2,7,1,-5,-6,10,49,23,4
-20,-22,-17,-5,9,-6,6,-28,4
-11,12,1,-1,3,-5,0,-32,4
11,-8,2,8,7,9,74,8,4
7,-4,15,1,-2,-2,7,21,4
1,3,-31,-11,16,-6,2,34,4
14,21,3,-1,4,1,-9,39,4
-3,-21,-10,-2,-3,4,18,12,4
-14,-28,-15,-5,17,-5,-5,1,4
11,11,9,4,1,9,32,-43,4
-3,15,5,-1,14,-4,-20,-1,4
2,13,-20,-7,-16,0,14,7,4
-5,2,-7,2,3,4,-7,54,4
4,-16,3,-5,3,-12,-76,-8,4
4,0,-11,0,20,-8,22,-1,4
-4,0,7,3,-10,9,2,22,4
-25,37,21,-4,17,-27,-102,-15,4
29,-36,-6,4,-6,11,38,25,4
25,42,16,0,23,9,95,20,4
-4,-15,-5,2,-14,-1,17,3,4
36,7,8,7,-12,10,42,53,4
-15,11,10,-1,-3,3,-3,25,4
-12,16,0,-3,-15,-8,-66,-7,4
6,-11,2,2,29,1,58,-15,4
2,20,4,2,-9,4,-11,-25,4
11,-21,16,8,-9,0,19,12,4
3,-15,-17,-8,12,3,25,11,4
21,20,9,8,-6,3,-35,44,4
-18,-11,-12,-6,-3,-5,9,-21,4
8,2,-3,4,-2,4,8,37,4
-12,-19,-8,-4,-6,0,-17,23,4
-33,-20,-15,-5,1,-9,-57,-83,4
9,-15,1,2,-8,5,11,25,4
-5,0,-5,-9,15,-3,36,10,4
-17,-15,-3,-2,-1,1,1,0,4
41,1,0,1,-35,5,-10,58,4
-34,11,-3,-4,0,-6,8,-8,4
-10,6,-7,-3,-4,0,-1,-23,4
-5,7,7,-2,6,-4,-46,-34,4
1,-7,-2,1,-9,3,46,72,4
-22,-30,-15,-6,-1,-9,-22,-39,4
18,2,0,-2,-8,6,9,11,4
5,-61,-20,2,7,-2,-46,-5,4
-12,43,10,-6,10,-11,1,-33,4
14,-26,0,2,1,3,13,33,4
-3,-4,-1,-4,12,-5,27,-9,4
-9,-10,-1,7,-15,0,-22,-24,4
8,12,8,1,19,2,31,-25,4
16,19,5,10,-11,8,-73,80,4
-19,15,-4,-6,5,-6,44,-52,4
6,-36,3,-14,14,-2,-56,11,4
14,-17,14,13,-31,25,-92,17,4
-21,12,9,-10,52,-35,-71,-85,4
28,10,6,6,-1,11,111,40,4
6,20,-8,2,6,3,-18,30,4
3,3,2,-1,0,2,-52,-36,4
28,-6,6,3,-10,16,67,30,4
-16,4,5,0,-3,-5,-57,23,4
-8,-22,-3,-1,-2,-5,55,3,4
-24,3,12,-8,31,-9,8,-80,4
-8,4,-24,-7,-7,-1,7,35,4
-11,-10,-9,0,1,-6,-9,-31,4
3,41,1,1,-12,2,10,3,4
-1,-14,-7,1,-9,2,15,12,4
1,-47,-8,-1,7,-1,17,-101,4
-34,-12,3,-2,1,-5,-29,-19,4
0,-14,-13,0,-7,6,41,39,4
-35,-12,-8,-9,-1,-23,-33,-42,4
-7,3,-4,-2,-21,1,104,3,4
22,-17,-2,4,-7,5,34,45,4
13,3,-4,12,-23,11,14,24,4
9,-58,0,-6,13,1,37,-13,4
-4,4,-8,-5,-13,-3,-34,-45,4
-21,2,8,6,-1,4,-50,-95,4
-28,-22,-27,-23,26,-47,-38,-45,4
24,14,-7,8,-7,15,39,13,4
3,10,18,5,1,4,-46,27,4
33,34,19,7,-8,17,72,17,4
0,-4,8,2,1,6,5,1,4
-20,11,-13,-7,20,-19,-17,-22,4
5,-18,-10,-1,19,-1,-22,2,4
0,1,-10,-5,1,-5,-8,17,4
12,-14,0,3,11,9,-19,-10,4
-22,34,13,-1,-25,-6,32,84,4
6,12,-2,1,-9,7,22,48,4
-15,-12,-18,-6,-6,-10,-59,36,4
9,-3,-15,-3,-4,5,55,28,4
36,-6,-1,5,1,8,-37,88,4
-2,15,-2,-3,6,5,90,-35,4
3,6,-2,-3,5,-14,-55,39,4
-4,17,23,5,-21,6,-16,23,4
6,10,-12,-6,18,-12,61,31,4
26,-1,-12,7,-11,15,9,28,4
-26,-59,-28,-19,16,-14,-44,-38,4
11,25,17,5,6,13,53,-43,4
-13,-37,-18,-6,26,-18,-99,-6,4
3,-6,-21,-7,6,-6,30,11,4
7,-5,0,3,-7,4,-53,-19,4
0,4,-6,1,-2,-2,9,-25,4
1,83,26,0,14,7,0,-37,4
-15,-22,11,4,9,-8,-41,-70,4
13,7,16,2,3,1,10,64,4
0,10,12,0,4,-1,-8,-3,4
20,26,13,7,0,7,17,16,4
-16,49,12,1,10,-2,-31,-31,4
15,25,13,4,-6,8,21,-9,4
-23,-21,0,-5,21,-20,-65,-78,4
-3,-3,-7,-2,-2,5,46,13,4
-1,7,3,-2,12,-2,22,3,4
-1,3,13,4,-14,-4,-79,-17,4
-8,-10,-6,-1,3,-1,39,-32,4
8,-1,-2,5,-12,11,97,-5,4
-21,-21,1,-4,1,-11,-58,-32,4
34,17,-2,6,-22,9,43,81,4
19,15,5,1,-14,4,14,30,4
-28,-27,-9,-7,-5,-9,-53,-32,4
13,-9,-3,2,-18,7,23,48,4
-2,-4,4,-1,5,1,63,-15,4
-10,18,-5,0,4,-8,-99,-59,4
-12,-33,-2,-7,22,-5,0,-64,4
12,43,28,4,-10,8,21,30,4
1,12,0,-1,10,-4,-44,-2,4
-19,1,-7,-4,-4,-1,59,14,4
1,26,-5,3,-11,-1,-28,-32,4
9,2,3,4,-2,3,-48,-3,4
-2,-7,1,-2,7,3,46,-7,4
12,18,3,3,-1,5,-26,33,4
-1,-29,-5,-3,-12,-6,-5,50,4
15,2,-7,2,-8,10,57,30,4
-11,8,-12,-1,-6,-4,-18,19,4
-38,-24,2,-7,20,-24,-33,-46,4
-5,-6,-7,-1,8,6,15,-69,4
8,-2,0,4,-10,6,-47,7,4
5,-8,0,-3,-7,-5,22,20,4
12,21,17,3,-8,7,42,-2,4
-13,-76,-40,-10,0,-5,54,16,4
-28,-9,-10,-5,-9,-9,-56,-26,4
2,26,25,6,-27,11,-4,11,4
-14,-6,-13,-5,2,-6,24,-8,4
19,29,12,3,-15,-1,-19,-1,4
-5,-27,-8,-4,-11,-5,28,-4,4
-11,-22,-6,-4,10,-5,-38,-26,4
18,15,13,5,-21,5,13,-11,4
-4,23,7,-7,2,-12,-11,11,4
-1,-16,-3,2,-15,8,10,-5,4
-15,4,9,-4,9,-12,12,-30,4
-22,-6,-5,-9,7,-11,-38,8,4
15,6,7,7,-3,9,-29,-10,4
4,2,-10,-1,6,0,26,28,4
12,-7,-14,2,-13,8,23,7,4
3,-56,-27,4,-4,11,-4,33,4
8,19,-1,-6,17,-2,14,63,4
-24,-10,-6,-7,20,-13,-12,-31,4
-13,-3,-15,0,6,0,-44,11,4
-6,-2,3,-3,21,6,78,6,4
1,15,-3,-4,8,-19,-83,5,4
0,2,2,4,-8,4,2,-22,4
4,0,2,2,10,-3,-9,-26,4
18,15,12,3,-10,7,-8,30,4
-26,-14,-12,-6,3,-8,-43,-28,4
12,20,4,-4,4,-5,44,12,4
-1,-2,-3,-5,6,-7,4,-26,4
28,40,25,12,-4,11,-22,47,4
-7,-38,-19,-2,5,0,57,-42,4
7,-11,-5,0,-8,5,43,-1,4
2,-5,-12,-2,5,-10,-28,-11,4
7,9,0,1,16,4,22,-10,4
14,16,17,5,-8,8,34,30,4
-3,-2,-24,-4,4,-3,74,54,4
22,-28,-1,5,-3,10,-61,39,4
-5,11,14,-7,4,-1,-69,42,4
-11,-11,-4,-6,-6,-15,60,-4,4
11,-13,5,2,13,5,-32,4,4
-5,18,-7,0,13,0,-56,-61,4
-27,-13,-7,-7,-17,-9,9,22,4
15,-7,18,8,-13,8,-11,25,4
-15,-16,-13,-6,-9,-6,-8,-68,4
-9,19,-2,-4,0,0,34,7,4
18,5,-4,3,-3,6,41,-6,4
-14,14,1,-1,6,0,-11,-58,4
-5,-10,-4,-2,11,-10,-93,13,4
-2,-2,1,2,-15,3,34,-3,4
-9,-11,-13,-4,9,-4,0,-28,4
5,-1,2,4,-10,7,9,32,4
5,14,9,-1,-9,3,-3,-18,4
-12,-10,8,1,-7,-2,-41,26,4
3,12,-5,-7,9,-8,93,7,4
-11,-2,-7,3,-15,-5,-95,0,4
6,6,13,-2,-3,-20,-13,-12,4
2,0,0,1,9,38,127,-13,4
3,-13,-6,2,-13,16,-101,-2,4
4,2,3,-1,-8,-11,116,3,4
-11,11,3,0,11,0,-88,-22,4
-4,19,-12,2,-3,13,32,-23,4
-5,-70,-2,-2,15,-8,-10,-6,4
0,3,-3,-2,-16,-10,8,-12,4
13,14,5,0,-16,-17,-8,10,4
5,11,10,-2,10,-15,-4,14,4
2,-16,-34,1,-19,12,31,28,4
5,0,2,-3,25,5,-19,14,4
9,-7,6,4,-7,9,25,51,4
-13,-1,2,-2,6,1,-17,2,4
1,16,-15,0,-9,-4,49,-3,4
17,-36,9,2,3,14,15,27,4
-11,6,-6,-6,1,-3,-19,-3,4
-3,-2,2,-1,-3,-4,26,1,4
12,14,12,2,-7,-7,-8,50,4
0,11,-7,2,-6,7,14,-13,4
-5,-3,10,0,19,4,-72,-39,4
-1,-12,-8,-8,-2,-22,40,-8,4
11,27,8,0,4,-1,44,-33,4
-33,-11,-2,-1,-13,4,-68,-58,4
9,16,4,2,-8,9,50,32,4
-3,-24,-5,2,-8,-7,-70,-2,4
-8,6,-2,-5,-1,-9,-20,-27,4
4,-8,-4,3,-6,11,-59,-8,4
-15,-13,-8,-7,20,-12,56,-55,4
13,3,-4,0,-15,2,9,18,4
-8,0,6,2,-17,1,-23,-20,4
-5,18,7,-1,8,-5,-5,3,4
16,2,5,4,0,7,36,6,4
8,20,-1,-3,-15,-5,22,57,4
-5,4,11,5,-8,0,-28,15,4
17,22,2,-1,3,0,9,17,4
4,4,7,4,-30,12,-32,48,4
-18,-5,-1,-4,24,-5,-11,-53,4
-11,-23,-5,0,5,-11,65,-3,4
3,15,5,-1,0,-2,-69,9,4
15,-2,-17,-2,10,3,107,13,4
12,-13,2,7,-12,14,7,-22,4
-5,-10,-11,-5,-7,-11,-46,17,4
-6,-11,-7,-3,-3,1,52,5,4
-6,-3,4,-2,6,-1,-42,5,4
5,-2,0,-2,3,-1,22,9,4
-4,2,2,-1,13,4,6,-7,4
4,9,4,-1,-4,0,24,15,4
-15,-3,-2,-1,-1,-8,-48,25,4
-15,-19,-15,0,10,1,22,-10,4
-19,6,9,-7,36,-7,-49,-86,4
16,3,-4,2,-5,0,8,22,4
-10,-5,0,-1,-14,2,17,-55,4
-9,-13,-2,-4,16,-7,15,-9,4
-3,11,-2,-3,13,-6,-13,8,4
5,-3,-3,1,-7,4,9,3,4
3,-11,-1,1,0,6,-11,23,4
7,25,7,-1,-16,3,3,6,4
17,1,5,4,-9,6,-12,34,4
-35,5,-2,-7,22,-13,25,-45,4
-4,-9,-2,-4,-2,-3,-37,41,4
-9,-3,8,-2,8,-5,-5,-13,4
2,-3,-4,0,-2,1,3,25,4
3,-9,0,3,-4,8,-24,0,4
-6,22,18,-4,15,-10,69,-25,4
1,-13,-24,-1,-7,0,-19,12,4
13,24,11,4,-14,13,40,1,4
9,-17,-13,-6,-1,-8,-14,4,4
-18,-14,-7,-2,-10,-4,24,-20,4
4,32,16,-3,9,-4,9,-30,4
4,-32,-29,-3,0,2,60,18,4
-19,-16,-12,-1,-1,-1,-54,18,4
20,4,-4,-1,11,1,38,11,4
-7,-20,-10,-5,5,-1,24,-54,4
1,26,7,1,-5,3,-29,-10,4
1,8,8,1,7,0,49,21,4
-5,-40,0,2,-9,0,-43,-3,4
13,9,14,1,2,-2,20,14,4
-6,4,9,-7,11,-8,-31,-9,4
18,-3,-4,4,-5,9,19,-1,4
7,14,5,3,-13,3,48,15,4
-14,3,-4,-2,-6,-9,-66,-22,4
5,2,7,-1,-5,-3,-51,44,4
-22,-11,1,0,6,-2,26,-43,4
5,2,-19,-2,3,6,-77,25,4
1,-4,6,-1,2,-7,21,20,4
-1,-1,-1,2,-18,-1,-29,4,4
7,32,11,3,-2,2,27,6,4
0,13,8,-3,-4,-1,16,-4,4
-2,-6,1,-1,-5,-3,-6,-31,4
11,-6,4,1,-8,8,19,-29,4
0,11,-19,-7,-2,-7,-10,2,4
7,29,12,4,-2,3,20,-43,4
6,-31,-32,-6,-7,-1,-6,-4,4
-3,34,-24,-7,0,-3,-13,-8,4
-1,-16,3,2,4,3,31,13,4
0,-8,0,3,-5,2,29,17,4
10,-4,2,-3,-7,-1,64,52,4
-44,-18,1,2,2,-3,-28,-76,4
-1,-6,-5,-6,-11,-6,9,0,4
0,-12,-4,-1,-8,2,-36,4,4
12,20,5,6,-8,4,-7,10,4
-3,-12,5,3,13,-1,-14,-28,4
-2,7,9,1,-9,7,75,21,4
-30,4,-3,-4,3,-15,-46,-21,4
10,-2,11,2,-25,2,-23,16,4
16,3,-8,-2,3,1,42,13,4
-3,-5,2,4,-5,4,-40,-22,4
-4,6,-9,-4,-8,0,15,-4,4
1,24,4,0,-2,-3,2,8,4
0,-10,9,2,1,-3,-13,17,4
12,0,-1,1,-6,-2,-4,3,4
0,-7,0,-2,9,0,-6,-40,4
-7,-1,-5,-1,-2,1,13,-27,4
-3,-23,-2,-4,4,-5,-26,-41,4
5,13,3,1,-2,5,-3,-42,4
9,1,3,2,15,-3,18,39,4
-3,2,9,1,-12,9,30,14,4
13,20,8,3,22,-2,-13,-3,4
-25,-28,-6,-3,-5,-11,-53,-1,4
0,-86,-29,-7,26,-4,-13,-28,4
12,38,13,2,3,5,26,26,4
8,5,-4,0,-3,2,42,35,4
8,2,-1,1,24,-3,-57,17,4
6,44,24,2,-16,3,-8,24,4
-14,-36,-24,-2,17,-8,-34,-20,4
4,-14,7,1,3,2,-6,10,4
4,7,12,2,-4,6,19,3,4
-16,6,-6,-8,37,-16,-12,-75,4
1,4,3,2,-7,12,-23,8,4
-49,12,-10,-10,19,-24,-75,-40,4
-7,-22,-7,-2,5,5,14,-41,4
11,8,-2,2,-15,6,44,-20,4
0,-8,1,-2,6,0,21,-3,4
-28,-40,-23,-7,2,-10,-39,-52,4
9,22,0,-2,-3,1,0,21,4
8,19,-3,0,-14,2,15,7,4
0,17,-4,-3,13,-8,-46,-11,4
11,-59,-1,2,-25,11,40,23,4
-4,-2,-3,-2,11,-5,43,5,4
-1,2,3,2,-17,3,-68,22,4
-5,-10,3,1,9,1,9,14,4
21,45,24,3,-6,5,28,-36,4
-26,-22,-29,-7,17,-6,3,-76,4
9,19,-3,3,-4,4,35,10,4
-3,12,6,-8,19,-10,-75,-32,4
27,15,13,4,-6,12,107,19,4
-25,0,1,-4,13,-8,-8,3,4
-11,-8,10,5,-17,-1,10,-6,4
8,-5,4,2,6,8,15,-12,4
14,17,4,3,2,-1,36,59,4
-1,-23,-1,-4,-21,1,6,74,4
1,-25,2,3,7,6,-39,-18,4
-3,3,2,0,0,0,0,23,4
7,3,-2,-2,10,-1,6,49,4
20,19,16,2,-10,-2,-6,5,4
1,9,10,0,5,-3,15,1,4
-2,-14,8,0,1,-3,-13,-29,4
-4,0,-25,-1,7,1,-9,-4,4
8,1,0,0,3,-2,-52,-7,4
2,6,1,-1,-10,3,22,27,4
11,4,2,3,-5,0,26,10,4
-21,-5,-3,-4,13,-3,7,37,4
13,-6,8,1,3,4,1,44,4
-2,-3,-11,0,-9,1,-13,23,4
19,3,-7,-4,-7,-1,79,72,4
-24,-5,-3,1,-7,-9,-124,-68,4
13,-24,16,1,7,7,21,7,4
8,-34,-10,0,13,4,17,17,4
-27,-29,-20,-3,-8,-8,-39,-12,4
13,21,12,-2,13,-1,47,-64,4
11,4,3,-1,0,-1,27,17,4
-17,13,2,-6,-1,-11,-86,18,4
-1,-26,-21,3,9,0,53,-30,4
1,16,-8,-2,0,-8,32,26,4
-12,30,13,-1,-12,-2,-53,-28,4
12,-45,-8,-1,3,8,-7,25,4
-2,4,5,0,-17,4,-10,2,4
3,-7,10,2,-16,4,-26,4,4
47,35,38,18,-24,15,96,37,4
-7,-9,-11,-8,-1,-20,17,-33,4
18,52,18,9,-17,7,-23,3,4
-20,-38,-7,-10,19,-9,62,-28,4
14,2,-5,3,-28,9,-34,8,4
-11,-9,-2,2,-1,7,39,-35,4
-15,3,0,-1,-3,-5,31,-32,4
35,15,-1,4,-19,8,-40,12,4
-43,-43,-12,-12,16,-17,-8,-31,4
-1,26,5,0,-2,-2,33,35,4
16,3,-3,-2,1,2,-21,34,4
11,12,6,4,-17,10,2,27,4
-15,-12,0,-3,7,-10,72,-32,4
9,29,2,1,-7,6,-42,8,4
-1,-18,-2,-2,-9,1,85,24,4
0,-1,0,1,9,3,-10,-21,4
0,14,-5,-1,5,-4,-118,27,4
1,-1,2,3,-4,3,38,-4,4
-8,-5,-4,-2,0,-5,0,-13,4
-6,1,8,-1,5,1,12,31,4
4,16,-4,4,11,2,5,7,4
-18,-27,-2,-3,1,3,-20,20,4
-4,41,-18,-7,8,-1,-2,-18,4
5,-4,0,-1,-9,-2,-13,21,4
-23,15,9,-4,15,-1,9,-42,4
11,24,4,-1,-10,-6,-45,-8,4
-10,-18,16,5,-9,2,-25,-2,4
6,-5,-1,-1,7,-1,44,-19,4
17,16,-7,3,-9,3,-26,33,4
-3,6,-1,-1,4,1,12,-29,4
-16,-40,-19,-3,8,-5,-27,-13,4
-7,-8,-7,-3,14,-6,65,10,4
-1,-30,-11,-2,8,-5,-27,-6,4
10,39,9,4,-8,5,48,2,4
1,-11,-8,0,2,4,-17,52,4
-9,-15,-7,3,-2,-1,-81,15,4
-18,-4,-10,-4,16,0,28,-57,4
-8,-8,2,-3,8,-7,-47,-55,4
-14,-33,-3,-5,-1,-1,2,32,4
10,27,2,0,-6,1,13,41,4
-11,-8,-11,-1,4,-1,-19,-17,4
-1,-9,-1,-1,-3,-5,-31,18,4
2,14,9,1,-9,-2,-16,2,4
-20,1,14,-6,15,-3,10,-45,4
15,2,8,3,-25,4,-26,28,4
-24,-13,-33,-8,26,0,117,3,4
8,-22,-3,-4,18,-10,-42,4,4
1,14,3,3,-17,4,-13,12,4
3,18,6,-1,-8,1,24,-16,4
-6,-11,-1,-3,10,-2,27,-24,4
5,11,9,3,7,6,24,23,4
8,4,-1,3,-5,3,-74,27,4
-8,-61,-18,-5,16,-3,25,8,4
2,8,7,1,0,1,-29,0,4
-3,7,-2,-5,14,-4,24,-16,4
-21,-7,-4,-2,1,-5,-26,-59,4
16,12,-3,-3,4,-4,-25,31,4
10,13,8,3,-6,2,-12,58,4
-4,9,5,-3,0,-2,15,-21,4
5,-7,-12,-2,1,4,30,11,4
0,13,17,2,-1,2,-6,4,4
4,2,-7,0,6,2,21,-2,4
-20,-3,7,4,13,-3,-76,-90,4
-1,-15,-9,-4,-3,-1,88,15,4
1,19,-6,-1,-9,-6,-62,10,4
12,0,11,-1,1,-1,38,11,4
12,29,-3,3,-14,4,0,-6,4
-6,-43,12,-2,18,0,-25,23,4
-5,0,-4,0,0,1,46,-23,4
-10,12,-1,0,-14,-8,-49,-36,4
-6,-11,-2,-1,17,0,3,-3,4
7,-2,-3,1,-25,0,10,-4,4
10,30,-8,0,-11,-3,25,-4,4
0,23,4,1,-6,-1,-74,-7,4
5,0,-6,-2,-4,0,58,10,4
1,7,2,1,-6,-4,-71,12,4
-15,-6,-4,1,1,5,49,-2,4
-15,-21,-3,-4,3,-19,-70,-5,4
13,3,13,3,-6,6,9,3,4
-16,7,0,-3,2,-1,19,-45,4
-1,-16,-3,-2,14,0,-16,-23,4
0,3,-3,1,-5,5,10,-13,4
3,-42,-3,-1,4,0,-2,32,4
-2,-15,1,1,5,0,-19,3,4
0,-29,9,2,-8,-1,-18,4,4
22,32,32,1,14,9,111,8,4
1,40,-7,-3,-17,-4,-35,-26,4
13,20,3,-2,1,-7,-33,-7,4
-4,-22,-7,4,-14,1,-24,-9,4
4,-51,18,4,22,12,83,39,4
-9,5,-5,-4,-4,-8,-60,17,4
-2,20,1,-1,4,4,70,33,4
-11,34,-4,-5,1,-6,-10,-31,4
12,-19,-10,1,-14,3,30,24,4
-9,8,5,0,-1,8,31,-8,4
5,-19,-14,-1,6,-1,-66,12,4
3,26,16,-3,28,-16,-19,3,4
-6,-12,-22,-5,-17,3,12,49,4
-5,-4,-20,-3,24,-10,3,-37,4
6,0,3,3,-3,2,7,33,4
-1,-14,3,5,30,11,20,-35,4
0,9,-15,-6,-10,-10,-44,8,4
-5,-1,3,2,-3,0,41,-26,4
-13,2,0,-5,8,-2,11,-43,4
4,-14,-8,-1,-6,4,10,59,4
-12,-6,-2,1,3,1,-34,-17,4
-7,-5,2,-1,4,-1,-5,-32,4
7,11,-1,4,-4,2,24,-30,4
-4,4,-3,-3,3,0,24,12,4
2,0,-7,1,8,0,-7,-30,4
5,-4,-4,-3,-9,3,5,46,4
-10,-11,1,-3,-3,-4,-9,-8,4
7,-13,-18,-1,-5,9,-29,11,4
-1,-8,-10,-4,7,-13,-14,-4,4
-24,-11,3,4,11,-1,-48,17,4
7,-20,-8,-2,-9,11,97,15,4
-12,12,3,-8,-7,-23,-85,-26,4
1,-15,-14,-3,11,3,105,-34,4
12,17,3,5,-19,9,23,31,4
-14,-59,-3,-6,7,-5,-32,8,4
4,-17,11,6,-12,7,35,32,4
6,63,47,0,22,-7,7,-6,4
0,-11,-15,-2,-6,-7,-3,37,4
-9,-10,-9,3,-18,5,-32,-44,4
5,15,15,0,-10,2,27,16,4
12,5,9,4,-27,5,-40,-2,4
2,4,4,-1,13,-1,1,-30,4
-3,-10,-9,-5,-5,-6,11,32,4
7,18,-5,-1,-6,1,5,-2,4
-6,-15,-16,-3,-4,-1,-18,-6,4
1,-10,2,-3,-1,-4,-35,-21,4
11,37,2,4,-13,0,-36,34,4
-1,-1,1,0,-5,2,20,17,4
-14,-16,-6,0,-7,4,-44,14,4
-13,-6,-7,-8,15,-14,100,-9,4
-2,10,5,0,2,-3,-39,-11,4
16,25,-7,3,-11,13,62,24,4
8,3,6,3,-3,-7,-62,-13,4
-14,-20,-10,-5,-14,3,-17,-26,4
8,23,0,2,6,2,15,22,4
-10,10,-16,-7,3,-6,-68,7,4
6,13,-7,0,0,-1,14,7,4
18,20,23,2,-16,-1,7,61,4
-3,-31,4,-3,-3,-3,30,-66,4
-4,-19,-12,-1,-4,3,18,-3,4
-16,-32,-8,-2,-1,1,6,5,4
9,0,-1,1,1,3,-23,12,4
-4,16,0,-2,-9,-5,18,-4,4
3,3,0,0,5,-1,44,-3,4
-11,-23,11,-5,19,-4,-17,-56,4
-8,-21,-18,-5,-4,-3,2,-42,4
-6,22,2,4,7,6,-23,-30,4
-11,-8,-6,-5,7,-15,-8,-43,4
29,16,7,6,-25,17,85,45,4
-19,-43,-44,-8,14,-13,2,-4,4
-8,34,10,-2,23,1,91,5,4
-3,-26,-10,-2,-5,-1,-54,0,4
3,14,-3,-1,-9,-6,-9,-5,4
20,8,26,8,-2,13,-43,22,4
0,-5,-8,-4,5,-9,0,-29,4
7,-19,-20,-3,-2,-1,23,75,4
-29,9,3,-2,18,-4,-66,-54,4
3,17,3,-1,4,-1,20,-11,4
-2,-17,-6,-1,-4,-5,-44,5,4
8,46,20,1,13,2,3,-5,4
0,-17,-4,2,-4,2,-21,9,4
4,-1,1,1,3,1,33,3,4
9,31,22,3,-1,0,-32,35,4
7,-28,9,1,10,9,119,-26,4
-25,-7,-14,-4,7,-12,-65,5,4
1,11,10,2,-3,1,6,-27,4
17,-7,-6,6,-19,5,-13,40,4
14,66,12,1,-21,5,24,12,4
9,-36,-3,1,15,-2,29,25,4
12,-12,-8,0,-14,7,-6,21,4
-22,-16,-3,-6,-2,-6,-55,-27,4
6,-7,-2,0,6,-4,-14,-18,4
3,-4,-9,3,-9,4,11,22,4
5,17,-3,-1,0,-1,-5,11,4
-22,-5,-7,-2,10,-2,57,-7,4
-20,-33,-7,-2,6,-3,-5,-30,4
2,23,1,-3,0,-4,-33,13,4
9,3,4,1,-3,-1,-8,-42,4
-6,18,3,-1,8,-3,2,19,4
6,2,1,-2,-1,-1,-17,5,4
3,-14,-17,-2,-4,4,-7,-10,4
-6,-4,2,2,4,4,49,5,4
12,7,-2,-4,-8,3,5,1,4
-9,-1,-14,-1,-6,-5,-35,10,4
0,22,8,-3,12,-6,25,-67,4
2,12,-5,-3,-5,0,-33,32,4
6,-18,-17,0,-11,1,-17,-1,4
6,-11,6,4,10,2,25,-29,4
-6,5,-5,-1,-5,0,-13,-21,4
-6,-1,9,-2,-5,-6,-81,-16,4
0,-13,-2,-1,8,4,93,-12,4
-6,7,-3,-4,-1,-5,-67,-9,4
12,10,7,4,-12,7,-4,13,4
-11,-14,-14,-5,11,-16,21,-13,4
1,45,7,0,-16,2,-22,23,4
-4,8,57,5,-13,7,33,-17,4
-1,-54,-43,-3,10,-2,-57,-12,4
-5,-16,13,-1,-4,2,57,32,4
3,9,6,0,3,2,22,-29,4
-9,-7,2,-1,2,-6,-67,34,4
-8,9,12,-2,-5,-1,88,-6,4
10,-3,-4,0,-6,4,-40,7,4
-16,-24,-7,-1,12,-10,-42,-6,4
-5,-25,-20,0,1,1,23,-29,4
-5,-19,16,-1,12,0,18,45,4
-2,11,-17,0,6,1,14,-17,4
-1,0,3,0,14,-2,-59,-7,4
1,-18,-11,-1,4,2,31,4,4
-4,18,2,2,-11,2,-18,40,4
-19,18,15,-2,9,-8,6,-52,4
14,-12,-3,0,15,3,-2,15,4
1,22,-1,1,-8,-2,20,26,4
12,8,9,0,-10,2,11,18,4
-8,22,29,-1,-15,-1,-43,-15,4
7,-8,-9,4,-6,5,26,-5,4
1,15,15,-1,-8,1,53,-11,4
-10,-44,5,3,-18,-2,-47,-17,4
2,22,20,-2,19,0,30,3,4
7,-2,-2,0,0,-6,-2,-7,4
-6,-18,-11,2,-11,0,8,-20,4
-3,-42,-10,-2,-7,1,-11,-13,4
28,33,-7,5,-27,5,-8,29,4
-12,7,5,-1,6,0,45,-38,4
-5,-17,-24,-3,5,-8,-81,-10,4
4,-7,4,-3,-6,-5,39,-22,4
-4,-12,3,-1,6,2,-31,15,4
2,-12,-5,-2,-7,-2,-40,-3,4
6,5,-1,-2,0,-1,54,10,4
7,62,3,-2,-4,-3,27,-4,4
0,-23,-9,1,-10,4,23,16,4
3,-17,-1,-1,-3,1,16,37,4
6,5,24,-2,10,0,-66,20,4
15,52,7,2,-7,6,61,14,4
-2,-10,-30,-6,-7,-3,-38,-57,4
-17,21,-11,-10,-2,-17,27,37,4
-11,-62,-29,-7,7,-5,-42,-14,4
2,-10,-3,2,9,4,19,21,4
-4,-11,1,1,-3,1,-2,2,4
0,16,1,0,-5,-2,-66,-7,4
-4,6,-1,-2,-6,1,44,16,4
-5,10,-6,-5,20,-3,-32,-33,4
6,-10,-1,2,6,0,8,-1,4
20,2,6,-1,-2,-2,-71,19,4
3,13,7,4,-10,4,47,-30,4
-2,1,3,0,1,-4,22,39,4
18,8,6,6,-3,10,38,33,4
8,3,-5,-1,-8,2,-6,11,4
-14,-24,-2,-4,-1,-4,-46,7,4
-2,-2,-5,-2,10,-3,-13,-4,4
10,-12,-35,-2,10,0,23,32,4
1,-39,4,3,-26,8,54,10,4
-11,-6,-4,0,10,-7,-28,-21,4
2,-1,-8,0,-7,2,6,-27,4
-25,8,9,-6,21,-11,14,-4,4
13,7,7,0,3,7,52,-14,4
8,22,-3,2,-6,-1,-32,-14,4
-2,-29,11,-1,17,-2,30,0,4
11,11,12,7,-23,12,-84,37,4
-11,-7,-13,-3,5,-6,112,-43,4
-4,16,15,-2,11,-5,-18,8,4
10,36,13,1,-9,-2,-30,-6,4
-15,-45,-39,-4,14,-3,-11,-2,4
6,37,0,4,-4,4,-6,19,4
0,-16,-4,-3,-2,-4,-3,0,4
2,27,10,1,-8,2,11,18,4
-18,-41,4,2,-3,-2,11,23,4
12,47,20,-3,-2,-2,-42,2,4
14,10,-3,3,2,3,-25,-3,4
-9,-24,-42,-1,4,3,94,-11,4
3,14,16,-5,15,-8,-28,-25,4
-4,-28,-4,1,-1,7,-13,-3,4
18,8,6,2,8,7,69,33,4
9,4,1,4,-19,1,-114,-19,4
-8,-3,-1,-8,16,-17,74,-29,4
-10,-32,-16,-2,6,-2,-8,5,4
-3,2,-14,-2,-5,5,-1,-29,4
1,30,10,2,-6,-2,-20,-33,4
3,-7,4,0,-10,0,-44,-17,4
-7,-22,14,-3,0,2,65,-11,4
3,39,-1,0,27,-8,-58,-4,4
-15,-37,-24,-7,-1,0,0,39,4
7,16,14,2,-40,1,-21,-13,4
-8,-14,-21,-5,16,-1,18,-26,4
7,15,11,-1,-5,4,29,30,4
-25,-75,-36,-9,23,-6,43,-14,4
1,20,11,1,-20,0,-66,-11,4
0,-3,9,6,-5,6,-35,-6,4
-3,0,-14,-3,-8,-8,32,8,4
5,28,12,-1,-10,0,-26,-5,4
-5,4,5,4,-18,6,53,-31,4
-13,-43,-2,0,-4,-5,-64,23,4
-38,-14,-1,-5,-24,-8,-45,-72,4
8,28,26,0,3,3,44,-8,4
4,-9,-11,2,-2,1,-49,1,4
10,6,5,-8,-21,-2,29,-4,4
5,7,-9,4,-20,6,42,-6,4
-3,-43,-1,1,3,-5,-10,15,4
-1,19,4,-2,-15,-3,-33,-14,4
4,25,-1,0,-18,-3,74,25,4
5,-12,-8,-4,-5,3,42,31,4
0,42,18,-4,11,-16,-48,-7,4
5,-11,0,1,-22,-1,69,23,4
-7,-4,-10,-2,0,0,-43,-15,4
21,-12,0,2,1,9,56,31,4
-4,4,9,4,-13,6,6,-11,4
0,-4,1,-2,-11,-5,-26,-25,4
0,8,-4,1,2,-3,-7,-4,4
1,20,0,0,-2,1,18,-20,4
0,-70,-22,-5,-2,-1,-58,5,4
-10,6,14,-8,-5,-4,-1,-37,4
-4,-18,-3,1,0,-1,-20,4,4
7,-9,-11,1,-3,0,-18,12,4
0,-3,5,5,-13,3,0,-3,4
10,19,12,-4,21,3,80,44,4
-8,-13,1,1,14,-8,-52,-33,4
-7,-19,8,-2,8,-3,-35,-19,4
-2,31,16,1,8,0,-14,-29,4
-7,-12,-20,4,-3,6,-2,20,4
-5,26,8,-1,9,-9,14,8,4
-4,-7,-1,-6,7,-5,-34,6,4
2,9,-5,-2,-8,3,-1,-8,4
-1,9,4,1,4,1,-6,-6,4
1,1,2,0,-1,3,-16,-15,4
-3,1,6,1,-4,-1,-4,36,4
1,14,2,2,-3,0,-16,19,4
-13,-37,-16,-3,-7,0,48,-32,4
7,15,-3,1,4,0,-16,15,4
-1,5,6,-1,13,-7,-4,-37,4
5,49,-5,-1,-2,2,56,21,4
15,5,8,2,-11,-1,22,22,4
12,1,-7,1,-7,6,13,18,4
-8,-34,-7,0,0,0,-8,-19,4
10,40,16,0,7,2,-4,7,4
-19,-41,-39,-9,-1,-5,-14,-20,4
-3,-5,5,-1,-4,-1,-26,-1,4
5,-27,-14,1,-14,4,-12,19,4
-2,-28,1,-2,-1,-2,11,-10,4
7,23,8,2,5,6,35,-9,4
1,1,-6,-6,3,-9,-3,-1,4
-5,2,-8,-2,7,-1,-34,-21,4
2,-24,-10,1,-9,2,0,-18,4
-10,13,-2,-2,18,-3,-14,-24,4
-14,22,10,1,12,-2,12,-6,4
2,20,9,2,7,0,20,-20,4
-4,25,7,0,9,-4,-14,-7,4
5,-4,-2,1,-7,7,6,15,4
1,10,16,0,23,-5,-5,-28,4
-2,8,10,-1,0,-1,-41,14,4
3,-15,-19,-3,5,-4,-41,8,4
-1,0,-6,-2,16,-2,66,-5,4
7,-11,-9,2,-8,6,34,-1,4
7,24,6,-1,1,-1,-9,13,4
5,8,-5,2,-4,2,-6,7,4
9,1,17,3,-2,5,-37,38,4
2,-33,-16,-1,-11,0,11,-12,4
2,7,3,1,12,-2,21,-2,4
-4,2,-6,0,-8,-2,32,31,4
-7,-6,-5,0,6,-2,-36,-4,4
-1,9,15,-2,-3,2,0,27,4
1,-3,-5,-2,7,-2,59,-40,4
2,-12,1,0,1,-2,-50,-2,4
7,15,5,0,11,-1,16,2,4
-1,-39,-4,-2,-2,-1,-6,15,4
-1,-1,4,-1,-9,0,1,21,4
6,-8,-2,-2,1,4,22,7,4
-6,21,-8,-2,-2,-3,3,-41,4
1,-16,-4,-5,2,-2,9,-13,4
-15,-8,3,-1,-7,-5,-24,16,4
1,6,-2,0,-19,0,-2,2,4
-2,-21,-1,0,-2,-5,46,6,4
2,0,-1,3,-38,3,-16,-25,4
1,14,10,-2,12,3,15,17,4
13,12,23,0,-10,1,32,50,4
-6,4,-2,-2,1,-8,-71,-25,4
0,14,-4,0,-10,1,16,20,4
-2,-12,-4,1,-6,4,-30,14,4
-15,-4,-18,-1,2,-6,51,-21,4
11,5,7,-2,9,3,-12,26,4
4,6,1,2,4,0,5,0,4
-3,0,-7,-2,-9,2,48,-30,4
-3,-2,-8,-3,0,-5,-8,-26,4
4,0,-1,3,-10,2,-9,22,4
-15,8,-1,-2,2,1,-16,17,4
-1,5,7,1,0,-3,-18,3,4
-3,-11,8,-1,-19,2,10,-15,4
-10,-6,-9,-2,4,-6,-15,-24,4
3,11,4,-4,7,-3,-24,-3,4
-1,-16,-5,-1,-5,1,39,-1,4
-8,21,2,-2,-2,-2,-52,-42,4
-6,-18,2,-3,3,1,2,11,4
5,-1,-7,3,5,-1,17,-14,4
7,32,-7,0,12,-3,11,16,4
-5,-42,-4,0,2,2,32,20,4
3,15,-2,0,-4,0,-12,-38,4
-8,-11,-12,-2,13,-3,-30,-58,4
8,6,4,-1,-6,-2,-9,14,4
-5,-32,-3,-2,11,-1,18,7,4
13,4,9,3,-9,6,-10,11,4
-14,1,-8,-4,0,-7,-1,10,4
-8,-15,-5,-1,1,-2,-54,-15,4
-10,11,1,-3,21,-6,14,-4,4
4,17,14,4,7,2,13,10,4
-1,-6,7,1,7,5,-8,6,4
-2,-2,1,-1,7,-2,20,4,4
-4,1,-7,-2,14,-3,-26,-28,4
2,8,5,3,-9,0,-31,28,4
0,6,-1,0,-1,0,56,10,4
-2,-4,5,-2,-6,-3,-57,-24,4
0,-1,6,-1,-2,1,-13,-20,4
-5,-47,-26,-4,9,-2,67,-8,4
19,8,5,2,-11,4,-67,17,4
11,8,0,2,-13,8,54,32,4
-19,-2,-4,-3,4,-3,-62,-25,4
7,30,25,0,-8,-2,1,26,4
8,4,-11,1,-9,3,23,8,4
7,13,-3,-2,-1,-1,-10,-7,4
2,3,-2,-1,-2,5,1,23,4
-1,0,-3,-4,4,-3,-7,8,4
-3,9,0,-2,7,-1,32,-6,4
-8,16,10,-1,-3,-3,-7,-26,4
4,3,-3,2,2,-2,7,-1,4
8,-19,-9,-3,3,-3,24,13,4
2,4,6,-2,-6,0,-51,6,4
-8,-23,-11,-4,13,-4,18,-16,4
6,-9,-8,-2,0,-2,39,11,4
8,20,-7,1,4,2,-69,-49,4
-27,-30,-8,-2,7,-1,32,-14,4
-12,-9,-7,-6,7,-7,-32,-5,4
10,16,14,4,-8,3,31,37,4
-2,-17,12,1,4,4,32,18,4
0,18,-4,-1,13,-6,-61,0,4
6,0,-1,3,6,2,10,15,4
-6,11,2,-3,-19,-1,-14,-20,4
-11,17,-18,-1,-8,2,8,9,4
-11,-26,-16,-1,-4,-4,-28,-7,4
11,10,7,-3,0,-1,77,27,4
1,20,-1,-2,-10,0,-9,-9,4
-5,-4,6,1,11,-4,-43,-18,4
1,-6,3,2,-10,3,29,-23,4
-10,-12,-19,-1,-2,2,4,-19,4
13,6,4,1,-21,2,-21,-27,4
-42,-4,-4,-10,-5,-14,-24,-10,4
10,-9,4,3,-1,4,12,18,4
-7,-4,2,0,-28,1,-72,-10,4
-5,-15,-8,-2,4,-9,30,3,4
9,39,1,1,-13,7,30,5,4
4,12,13,0,-7,-4,-7,-5,4
31,8,4,4,-19,2,20,74,4
-9,-10,-8,-3,-1,-4,-56,-8,4
4,-8,3,0,-12,5,29,24,4
-4,2,1,-4,7,-8,13,-14,4
1,0,3,0,1,1,0,-17,4
7,-21,-17,0,-11,6,-9,21,4
-8,11,5,1,5,-6,-9,-39,4
3,-8,-14,1,-7,5,-2,25,4
-3,-10,-5,-1,13,-4,4,-3,4
-2,16,14,0,5,-1,19,29,4
5,12,-4,2,2,4,-28,-5,4
15,14,-11,-7,10,-1,16,22,4
-10,-6,5,-2,4,1,24,-44,4
-3,-9,4,1,16,-3,-40,-7,4
5,-9,-3,-3,11,-5,30,9,4
16,20,11,3,-10,5,-16,33,4
-10,-18,-5,2,-6,-1,7,12,4
-7,6,0,0,14,1,-4,-18,4
-1,-16,-11,-3,3,-2,40,-21,4
0,-5,-1,-1,-14,-2,6,34,4
-19,-5,-8,-1,21,-1,-38,-27,4
13,2,2,2,-5,5,15,14,4
2,2,15,3,-4,2,-28,12,4
1,21,5,1,4,2,28,5,4
1,0,-3,-5,2,-7,21,-13,4
-12,-31,-7,-2,8,-4,28,-25,4
8,-9,-4,0,5,3,-27,27,4
2,-3,0,1,-2,6,17,-23,4
-10,-6,5,5,7,2,4,-14,4
-17,-5,-14,-8,27,-9,-18,-53,4
9,-4,3,2,-3,2,-4,14,4
-4,-21,11,2,3,0,7,-3,4
1,15,-6,-3,-1,-3,-23,-32,4
6,2,4,2,-12,4,30,20,4
14,3,-2,1,-2,-5,-20,1,4
-7,6,6,1,1,-1,0,-42,4
3,-15,-6,-4,-7,-2,60,31,4
13,6,22,0,-4,4,9,41,4
-9,-7,-1,0,-14,5,4,0,4
1,10,-1,-3,3,-5,-28,4,4
16,2,19,4,-7,5,-23,18,4
10,3,-12,-1,-12,1,13,15,4
1,-11,-10,-6,-2,-6,4,11,4
0,4,-3,-2,0,-3,-36,2,4
1,18,17,2,-27,5,-18,9,4
2,22,-5,-1,14,-1,50,1,4
-19,17,4,-5,6,-10,-35,-34,4
2,-18,-4,0,-9,-1,-13,2,4
6,2,0,-1,-1,1,5,-8,4
-1,3,1,1,-9,4,2,7,4
-2,-4,-3,-2,2,2,-6,-3,4
-9,-8,-1,0,5,1,7,6,4
-7,18,6,-3,10,-4,-3,-20,4
-5,-12,4,2,-11,2,12,23,4
-3,-4,2,-1,8,0,-1,-34,4
0,-11,-1,1,4,-3,-62,-7,4
-3,-8,-8,0,7,0,-2,-15,4
-2,15,2,-1,6,-6,46,9,4
12,-19,-3,-1,-5,-1,-67,2,4
-9,20,9,-2,11,1,48,-23,4
5,-5,-5,0,-5,0,-19,-5,4
-9,11,0,-3,-5,-7,-72,-14,4
3,6,12,1,-3,8,127,14,4
3,-27,-31,0,3,2,-24,-19,4
-28,2,-5,-6,13,-15,-108,-28,4
-2,-24,-8,1,-20,2,31,-6,4
-18,13,-9,-6,6,-6,-8,27,4
2,14,11,0,3,-2,6,-8,4
17,10,12,4,-23,10,37,7,4
2,-8,-22,0,-2,-2,-45,13,4
0,-5,1,0,-4,-1,-4,-23,4
21,13,12,5,-19,11,32,15,4
-17,-19,-7,-6,-8,-10,23,17,4
-18,-11,-13,-5,-8,-4,-30,-26,4
18,-1,11,7,-11,4,74,-10,4
-15,-6,-4,-5,4,-6,-58,6,4
27,-3,7,4,-11,4,-12,12,4
4,4,8,1,-11,3,-4,-8,4
-9,4,4,0,-2,-4,-15,2,4
-3,-6,-13,1,7,-1,19,-9,4
-4,-8,-12,-2,-4,4,27,2,4
3,-25,-6,0,22,-1,-21,-9,4
8,14,-6,-2,7,-6,-14,-21,4
-10,3,12,-2,-13,2,68,28,4
6,-29,-20,2,-6,-2,-22,15,4
0,13,13,-1,8,4,44,30,4
-28,-4,-10,-3,29,-5,-94,-49,4
-14,-20,-8,-6,9,-17,-18,35,4
6,9,8,0,4,7,82,4,4
3,4,-3,-2,-6,-3,-24,1,4
14,-1,13,3,-15,3,4,29,4
3,14,-9,0,4,2,30,39,4
8,18,-8,0,-9,0,-46,5,4
-16,-5,6,-1,5,-3,-18,-45,4
1,-9,-1,0,-3,2,13,14,4
1,-1,-2,-3,7,-7,-45,-17,4
1,-2,6,-2,6,1,36,-1,4
-1,3,2,-2,2,-1,-4,-31,4
2,1,5,0,14,3,34,-26,4
-7,7,7,1,6,-3,-36,-49,4
0,5,2,0,5,-2,-30,17,4
3,-5,4,2,-1,2,25,9,4
-11,-25,-27,-6,-6,-1,-7,-43,4
-11,-13,-4,-3,7,-2,15,-6,4
4,29,16,-1,4,-3,-34,-5,4
-3,-17,-14,-2,10,-2,-47,-7,4
5,-9,-1,2,-7,-5,-31,34,4
9,27,8,-4,15,-3,49,-37,4
-6,-7,-13,0,-6,0,20,-8,4
9,16,5,1,-7,1,-7,25,4
11,18,-8,-2,-3,-2,-12,31,4
6,-11,-3,1,-2,3,-43,-8,4
-10,-2,-3,-4,8,-5,15,17,4
12,3,11,3,-16,4,-4,25,4
-8,-7,-2,-3,12,-11,14,-27,4
5,8,5,1,-1,7,25,-24,4
3,-14,-2,0,0,2,-16,7,4
0,3,2,4,-13,4,-64,-22,4
2,8,13,-3,5,3,93,25,4
-5,-8,-6,-2,-10,-10,-96,-11,4
2,-15,-6,-1,7,1,38,4,4
0,21,-21,-2,-5,0,17,-17,4
5,-12,-10,2,-7,2,-18,20,4
-14,-6,4,-1,-12,-4,38,13,4
-2,-4,1,0,-1,-2,-14,16,4
1,7,1,-2,-7,0,3,0,4
-1,-8,-10,0,-5,2,3,34,4
-9,-8,2,1,9,0,13,-22,4
-6,27,9,-1,-5,-2,-35,-37,4
6,-15,3,0,-2,-1,54,40,4
-9,31,2,0,-1,-1,-75,-31,4
10,-42,4,-1,-3,2,89,50,4
1,-13,19,4,-9,-6,-60,-8,4
-28,5,12,-5,6,-13,67,0,4
2,-6,-2,2,-7,7,19,-8,4
16,9,-4,4,-6,5,-31,34,4
2,-6,10,1,1,6,45,6,4
-2,-15,-15,-1,1,-1,27,-9,4
-4,-21,-5,-3,8,-4,-48,0,4
-3,15,3,-1,2,3,25,-20,4
-9,-6,-7,-5,22,-4,2,-13,4
2,6,7,-1,-4,2,-6,-6,4
-1,4,3,3,-11,1,32,6,4
26,29,14,4,0,3,-45,-43,4
-32,-71,-31,-7,-4,-3,23,57,4
6,3,0,-1,-13,3,13,40,4
-9,-2,-1,-3,7,-4,-29,28,4
6,-5,-10,-1,-20,2,17,24,4
1,13,-6,-1,3,-1,-13,-22,4
-2,15,10,1,-5,0,-16,-17,4
12,15,-12,-1,-6,-1,42,-10,4
-6,4,0,1,0,-1,-55,-24,4
7,17,-2,-5,-3,-3,54,1,4
7,-24,-8,0,-10,2,-14,24,4
-6,4,7,1,-5,-2,5,-48,4
-11,7,-3,-5,13,-1,-32,-7,4
-4,-7,-6,0,-9,0,-7,25,4
-4,1,3,-1,15,2,0,0,4
-1,-9,5,0,-3,1,-10,6,4
7,-1,12,1,-3,3,55,11,4
-11,3,-4,-1,-4,-2,-22,-1,4
1,-10,10,-2,25,-6,-26,-29,4
3,1,-2,1,-6,5,-2,23,4
-1,9,3,0,-4,3,11,23,4
19,29,-3,1,11,2,29,-8,4
-8,-12,2,-2,10,-5,-18,-39,4
6,-3,4,0,6,5,27,-11,4
3,-20,-20,-3,2,-8,-17,24,4
-4,0,-1,1,4,3,26,-60,4
-10,6,8,-3,6,-7,-47,-7,4
7,-12,-4,1,16,-2,-34,9,4
6,6,-1,0,6,4,58,8,4
0,-7,-2,0,-3,-1,-64,-18,4
-3,-6,-6,-1,-4,1,22,6,4
2,18,7,-3,1,-3,-22,-17,4
-2,-5,-1,-1,4,-2,6,3,4
-6,8,4,0,-5,-2,24,-2,4
4,8,26,2,-7,4,-28,-45,4
8,-49,-18,-2,5,-2,19,28,4
-3,1,-2,-1,8,1,-5,-55,4
12,9,4,2,-31,2,7,-3,4
0,-25,-17,-1,-8,0,24,34,4
-4,5,-4,-1,5,0,20,16,4
-4,2,9,-1,-1,-1,-15,16,4
15,-15,-7,1,-10,5,-19,3,4
-17,43,0,-4,14,-13,-8,-30,4
-8,-5,3,1,-7,2,-20,-28,4
1,-1,-1,-3,-14,-1,24,30,4
-10,-4,1,-3,24,-6,-49,-69,4
6,-10,-22,-1,12,-4,-9,-40,4
-1,17,3,0,-5,2,17,0,4
-3,5,9,0,-9,1,-2,0,4
1,-3,0,1,12,4,7,22,4
14,-2,-5,-1,-8,3,27,47,4
-20,-4,7,3,0,-2,-53,-20,4
-10,-8,-15,-4,16,-10,35,-41,4
6,9,-1,-2,-14,-6,33,49,4
13,-9,13,3,-16,3,-34,-14,4
8,-9,-15,0,6,0,-8,21,4
-5,-6,-2,-2,-5,-3,-2,13,4
-2,13,5,2,7,2,15,9,4
12,7,1,2,1,5,26,28,4
-14,-29,-6,-3,-4,-2,12,-17,4
1,-1,2,-1,-9,1,-14,-16,4
7,8,-2,-1,-2,0,8,6,4
-15,-3,-9,-3,-6,-6,-56,-3,4
7,13,11,1,-9,4,42,26,4
-3,14,23,3,28,-5,-65,-34,4
12,15,-11,-3,0,1,42,31,4
-9,1,-6,1,10,8,33,-25,4
-1,18,1,-5,-2,-12,-48,7,4
-4,3,5,5,2,5,-55,15,4
-11,-5,1,-6,-6,-10,48,-22,4
11,4,0,2,9,8,0,5,4
7,-3,-4,-2,-6,0,-69,20,4
-10,-23,-15,-5,-7,-1,95,5,4
10,9,7,4,12,4,-32,32,4
-7,-33,-15,-2,-11,-4,24,16,4
2,7,11,1,-10,5,18,-1,4
4,-6,-6,2,-7,1,-28,12,4
6,-8,-1,0,-8,2,-21,10,4
-4,8,6,-3,5,-5,19,-52,4
-7,0,-3,1,-8,-3,5,-16,4
2,29,6,-4,0,0,8,0,4
-13,-14,3,-2,2,-3,-8,-29,4
3,0,-30,-6,-14,-3,-6,5,4
-7,-10,0,-1,-7,-1,22,14,4
-5,-1,-11,-1,0,0,-5,-15,4
-2,-2,7,2,-27,6,25,-11,4
9,0,7,-1,-5,-5,-26,35,4
-26,4,-5,-5,-1,-7,-55,1,4
11,-1,-1,0,-14,4,-6,22,4
-14,-10,-5,-2,-8,-2,-2,11,4
2,-2,6,3,4,4,53,30,4
-12,-7,-11,-2,-3,-5,20,-40,4
-3,5,-7,-3,2,3,-12,12,4
-7,-12,-1,1,12,-3,-25,-20,4
2,-4,3,0,-3,2,20,4,4
17,12,-3,0,2,0,-7,-10,4
6,-16,0,2,-5,2,5,7,4
3,-7,6,1,1,-5,-13,18,4
-7,-6,-33,-5,13,-1,-21,-9,4
9,32,3,-1,5,4,40,-7,4
2,4,-1,0,6,1,-23,-19,4
-10,15,0,-6,17,-15,27,-4,4
-9,-21,3,-2,2,-8,-71,-11,4
-1,36,24,0,4,0,-6,1,4
6,5,-6,3,-3,6,37,2,4
-6,-32,-10,0,0,4,13,-4,4
9,38,19,1,-11,-2,-5,5,4
1,-16,1,1,4,0,18,-3,4
-2,-11,-2,-1,1,-1,3,12,4
8,-1,3,1,0,3,-34,2,4
-10,-4,6,3,-7,-2,29,10,4
-8,-16,-8,-1,2,-1,11,-6,4
-8,-10,2,-3,2,-4,-4,47,4
-7,6,-1,4,3,5,3,12,4
-14,-7,-2,-4,3,-2,2,-14,4
14,2,-3,3,13,2,1,-11,4
6,-8,-6,-1,-16,0,17,-25,4
2,10,2,-2,0,-5,-23,6,4
22,60,19,5,-16,9,36,10,4
-9,-82,-13,-1,3,2,31,47,4
-17,-9,-9,-9,10,-18,17,-24,4
4,-17,-6,-4,17,0,-3,25,4
9,8,-19,3,5,8,-33,-50,4
-1,-2,-1,-3,-5,-5,39,-1,4
3,14,9,2,-3,4,57,4,4
-2,-8,-6,-2,9,-5,-83,-17,4
-20,-12,0,-3,-5,-2,5,-30,4
13,14,5,-3,13,-2,-21,12,4
-6,-10,-2,1,7,-3,-24,-13,4
4,14,-6,1,-10,1,7,8,4
5,-7,7,2,10,-1,4,9,4
3,-1,-3,1,-9,0,-13,-12,4
-2,-3,2,0,6,-1,-15,-8,4
8,1,1,0,11,3,12,-38,4
2,-12,3,-1,-4,-4,7,31,4
-20,2,-7,-3,13,-4,-24,-75,4
-1,3,11,0,9,1,19,42,4
2,3,1,0,-10,0,5,-21,4
-12,-62,-8,-3,5,-6,-56,2,4
3,17,2,4,9,7,52,62,4
9,-25,-22,-4,-8,-1,-45,-25,4
-7,15,4,-2,6,0,29,-4,4
0,8,1,-2,-4,-2,10,48,4
8,7,5,1,-6,3,5,5,4
2,4,2,2,-5,-1,-47,6,4
-6,7,-5,-4,14,-4,64,9,4
1,5,5,1,0,5,12,13,4
-3,6,24,-1,0,-2,-11,-25,4
1,6,-10,3,-9,2,-6,-9,4
11,-17,-10,0,-7,2,13,0,4
-13,22,20,0,-23,-2,10,44,4
4,-14,-1,1,-13,1,-4,3,4
2,16,8,-1,-9,1,1,6,4
-4,4,3,-2,-10,-7,-50,-25,4
2,-28,7,-1,5,2,17,-2,4
7,5,-12,0,-11,0,12,-16,4
-11,7,6,-1,-5,-5,-43,-28,4
-8,-18,-3,2,-27,1,-1,11,4
10,14,-2,-3,-12,-5,3,0,4
-8,-17,-11,-2,-7,3,-6,6,4
4,-12,-3,-3,12,-3,13,-30,4
-9,19,-2,-5,-2,1,12,2,4
5,28,7,2,-4,0,2,-41,4
8,-11,0,-1,-7,2,52,21,4
-13,1,-3,-1,-8,0,25,33,4
-10,-28,-10,-1,-2,-3,-49,-20,4
0,-11,-8,-2,10,2,-18,-29,4
-20,6,-7,-4,6,-15,-97,-14,4
6,3,1,-1,-3,4,52,12,4
1,-4,9,0,-2,1,16,5,4
2,-5,-8,2,4,5,22,7,4
8,5,-6,1,4,5,-11,10,4
-18,1,0,-3,12,-8,-34,-60,4
-1,16,-1,-1,-4,0,-6,1,4
10,2,-3,0,-5,1,9,15,4
4,15,2,-1,-5,-5,-19,7,4
-1,-20,23,2,5,4,25,33,4
4,15,4,1,7,4,-34,5,4
-4,-16,-16,1,8,-3,15,-52,4
1,-5,-1,-1,-8,0,73,-25,4
16,38,16,3,-12,5,-10,-33,4
8,1,1,0,14,-5,27,61,4
-13,-20,-5,-2,-4,0,-5,-6,4
-3,4,4,1,4,3,-7,-3,4
1,3,-6,0,3,-5,-43,-13,4
10,0,8,1,-13,7,33,-4,4
7,13,1,-1,-2,0,-12,-5,4
-10,-1,-2,-6,-3,-4,12,2,4
-1,4,-12,-5,-3,1,22,15,4
2,-18,-7,1,-3,1,-34,-16,4
-5,14,8,-2,23,-7,-13,17,4
0,4,19,1,0,1,-27,-14,4
10,24,-5,-3,6,-2,-17,-17,4
-16,23,-16,-2,-11,-4,30,-35,4
13,4,-8,-3,1,-1,-8,-11,4
3,-11,-3,2,-5,4,4,29,4
5,-9,-4,-2,-5,2,40,16,4
10,10,14,3,6,4,-14,-13,4
-12,-23,-9,-4,4,-10,-43,-18,4
1,44,2,0,1,-1,-47,-11,4
12,-24,-5,-4,2,2,55,22,4
-11,-6,-2,-5,2,-2,8,-39,4
1,6,5,2,-5,5,-19,20,4
2,-9,-2,-2,7,-7,13,-10,4
7,1,1,5,-8,7,-28,27,4
7,-8,1,-1,4,-4,-3,25,4
-17,-13,-16,-1,-15,-5,3,-30,4
-2,-1,-3,-3,11,-2,-24,-6,4
-2,-17,-19,1,8,3,39,6,4
-6,-14,3,-2,13,-5,-29,8,4
1,21,3,-3,5,-3,-10,13,4
0,-19,-8,-1,1,2,35,-31,4
-18,-30,-11,-5,-4,-5,-42,1,4
-4,-21,-3,-1,7,-2,40,-14,4
13,8,6,0,4,6,9,36,4
10,8,5,4,-2,5,-24,20,4
-8,-9,-2,-5,19,-9,44,-17,4
-1,9,-2,-1,-11,-2,-71,9,4
4,5,3,1,-12,3,36,30,4
-2,-22,-9,0,10,-3,-4,-54,4
6,3,-4,1,6,-1,-22,14,4
12,9,5,2,5,1,-65,12,4
-27,-18,-10,-8,-8,-10,50,4,4
3,4,-1,-1,-1,3,28,32,4
-5,-10,5,3,-5,1,-19,-15,4
5,-5,-16,-2,-13,0,30,10,4
5,14,4,0,-4,1,-11,5,4
-4,1,7,0,-5,-2,-6,10,4
3,6,-1,-3,-22,-1,22,11,4
-9,-13,-6,-1,-11,2,12,10,4
8,-6,14,3,-4,0,-25,-11,4
2,3,0,-2,-11,4,36,12,4
3,11,3,1,-3,1,55,37,4
-4,8,10,0,-14,-1,8,-4,4
5,-49,-29,0,-6,4,26,8,4
-7,10,4,-4,8,-7,-38,-8,4
4,21,11,3,7,1,-17,-9,4
-4,-3,1,-3,-1,0,7,19,4
14,29,25,6,2,3,75,-28,4
5,-12,-2,-2,5,-1,6,25,4
-10,-5,-5,0,15,-9,-106,-60,4
-9,-15,-4,0,5,4,42,3,4
-10,-2,6,-4,24,-4,0,-6,4
1,-9,-9,0,-4,5,43,14,4
3,18,22,0,13,-1,24,3,4
-1,-33,-28,-4,20,-6,-71,7,4
10,4,5,3,-17,4,-15,20,4
-23,-5,-17,-3,4,-9,-37,-69,4
-3,-21,-18,-7,10,-3,10,-2,4
3,17,7,3,2,3,8,-12,4
-7,1,-5,-1,2,-2,5,6,4
14,2,3,-2,16,-2,-48,43,4
6,35,5,3,-15,3,7,-16,4
-8,1,-1,-3,1,0,33,-28,4
-3,-3,2,0,11,-6,-53,-10,4
9,-1,7,1,-11,2,37,9,4
-3,-7,-8,0,6,-3,-14,-14,4
-7,5,4,-1,11,-1,-4,-37,4
9,10,-1,0,-1,-1,-3,5,4
-14,-47,-13,1,1,3,10,2,4
-4,-8,6,-3,-6,2,27,24,4
8,3,7,3,-6,7,71,5,4
-4,0,-4,-4,24,-12,-98,-31,4
6,11,1,0,9,0,27,14,4
-5,-1,-3,0,2,0,-19,19,4
17,1,7,2,-6,6,35,52,4
0,14,18,1,-11,0,-35,5,4
-9,-3,6,1,-2,-1,15,7,4
5,-13,-19,1,8,-2,24,-6,4
0,1,-1,-3,-3,-2,-30,-21,4
0,-1,-2,-1,-2,1,4,12,4
2,12,8,-1,0,-2,-28,1,4
0,6,12,2,-16,1,4,-12,4
4,4,-7,-1,-4,-5,-6,4,4
4,-7,-10,-1,3,4,31,-3,4
-3,13,-1,1,-10,3,37,-31,4
0,-14,5,1,-27,0,11,10,4
-9,37,3,-2,6,-11,-61,-7,4
-3,-55,-12,1,-8,2,-12,12,4
0,13,-4,-4,-5,-1,56,31,4
-10,-2,1,-2,-7,-2,-15,-17,4
6,0,10,1,-19,1,-7,15,4
0,9,-23,0,-7,0,34,-9,4
7,-3,9,4,-4,0,-38,10,4
16,8,1,3,6,11,49,15,4
-22,-21,-16,-8,13,-19,-36,-46,4
-13,7,3,-5,14,-7,-22,-65,4
4,4,4,-1,1,3,-4,-7,4
-5,-18,-24,-5,16,-1,17,-11,4
8,22,13,3,-15,4,0,13,4
18,22,11,-1,1,1,28,33,4
0,-11,-9,-2,-1,-5,-18,7,4
-5,6,4,-1,21,-1,-47,-16,4
9,-5,-5,3,-1,5,16,28,4
-15,-16,-4,0,6,-2,8,-3,4
11,8,1,1,1,-1,-12,8,4
-2,1,-1,-2,5,-1,24,8,4
-6,-13,-1,-3,-1,0,-7,31,4
-18,-19,-5,-1,-2,-4,-63,-38,4
-4,-2,-3,-4,-4,0,19,-37,4
1,3,2,0,-15,-2,45,7,4
8,-9,5,1,-4,2,-10,4,4
-14,5,-2,-2,-6,2,16,-26,4
9,3,-12,-1,-7,-2,-19,17,4
-7,3,10,-1,1,2,-4,16,4
6,1,-2,-3,6,-2,23,-54,4
14,6,-1,0,-19,-1,-51,30,4
3,-2,-2,-1,-4,-2,-10,14,4
-11,5,2,0,-11,-1,-7,12,4
-2,4,-5,2,-4,1,33,9,4
4,1,5,0,13,3,25,-3,4
-7,9,4,1,21,-9,-96,11,4
3,-6,-15,-4,-11,1,-26,31,4
1,-12,-8,-5,4,-5,14,10,4
6,10,7,-5,13,-4,6,-2,4
-20,5,-33,-4,5,-5,14,-31,4
5,-17,-5,-1,20,-2,-60,-36,4
-4,8,8,3,0,2,37,15,4
10,17,-11,2,-7,10,62,32,4
-14,-7,5,-8,17,-15,-57,-84,4
-7,-7,0,-1,29,-6,22,-36,4
-6,-6,-7,-3,3,1,-17,-24,4
-4,-6,5,1,-5,0,40,13,4
8,11,20,3,2,5,23,-1,4
4,3,3,2,-21,0,-21,6,4
-8,-7,6,-1,5,-4,-25,-6,4
0,-3,-1,0,13,-1,21,0,4
4,3,2,2,-3,1,-5,15,4
-5,-15,-15,-6,-11,-6,8,-25,4
10,26,6,3,2,9,39,24,4
-11,17,-1,-3,-7,-12,-92,-21,4
0,-25,-16,-2,-6,5,23,9,4
-1,-19,-17,-1,19,0,-26,-1,4
5,21,-2,1,-12,0,0,0,4
2,14,12,2,-2,4,43,28,4
-6,5,16,-1,-1,-2,-39,-25,4
0,3,11,-1,9,-6,41,-17,4
9,-8,-3,1,-4,3,-30,-4,4
-4,1,-5,0,10,1,-4,-6,4
3,7,2,4,-5,4,10,7,4
3,10,9,0,-1,2,-2,26,4
-21,-6,-3,-3,16,-6,-7,-30,4
12,-5,4,1,-13,2,28,24,4
-9,-5,0,-1,10,3,43,-4,4
1,-1,-12,0,-9,-6,-38,-48,4
-14,-18,4,-2,25,-4,-63,-87,4
6,-2,-5,2,-13,4,4,17,4
0,-2,-4,-1,-1,-3,17,8,4
6,14,10,1,0,-2,-47,25,4
3,-14,-21,-1,-12,4,50,26,4
-17,-5,1,-6,13,-11,-25,-56,4
1,9,8,1,-6,2,11,11,4
16,-4,-11,0,-7,9,33,36,4
3,1,5,3,-24,6,72,47,4
-3,-21,-10,-3,-1,-7,-26,-39,4
-2,33,12,-2,21,-3,26,-8,4
-23,-49,5,-1,1,2,-45,3,4
8,3,-5,0,-11,3,29,3,4
1,35,6,-2,2,-1,27,18,4
10,-22,8,3,4,3,-9,40,4
-6,7,7,1,3,1,6,11,4
-5,-6,6,-3,5,-6,-38,6,4
4,-13,-6,2,3,2,7,-4,4
1,1,-5,2,-4,-2,-27,3,4
2,17,6,-3,19,-3,6,-64,4
-6,-22,-6,0,4,-3,2,37,4
4,2,3,0,-1,-1,-31,18,4
0,-12,-12,-3,5,1,43,27,4
21,11,-4,1,-8,4,8,-49,4
-12,-13,3,-3,4,-7,-6,-3,4
6,-22,-34,-6,-2,-1,-17,17,4
-4,2,-6,-3,12,-4,-28,-7,4
13,3,18,4,-6,6,77,23,4
-21,4,-16,-9,-14,-2,-48,-37,4
-1,3,9,1,-8,1,48,-31,4
0,-1,0,-1,-8,1,17,-32,4
-7,9,7,1,-14,-3,-5,54,4
18,40,17,4,-23,6,20,25,4
-21,-37,-20,-8,-18,-8,-38,-4,4
-14,-32,-4,-2,2,-2,-15,-12,4
3,11,-5,0,-2,-1,-17,-8,4
14,21,7,2,-6,1,43,-5,4
-9,-7,0,0,-7,2,-15,22,4
-11,14,8,1,-10,1,11,-56,4
-13,2,-10,-5,-7,-4,5,-10,4
1,-12,-7,0,9,0,-14,-9,4
8,12,12,6,0,7,26,13,4
12,-4,-3,-2,-10,2,33,23,4
-3,7,0,-2,-1,-4,3,14,4
-8,-31,-18,-4,15,-4,-12,-23,4
4,-7,10,1,2,1,-7,-25,4
4,15,-2,-2,0,-2,4,1,4
-3,3,5,0,12,-3,-19,2,4
14,-8,-3,1,-12,0,-16,8,4
2,16,9,2,4,4,27,34,4
-3,-10,-9,-3,0,-9,-22,-24,4
-16,-7,-7,-5,19,-13,-36,-71,4
5,4,4,4,2,6,4,42,4
-2,0,0,1,17,-3,-40,-11,4
8,20,-10,0,-7,5,1,33,4
6,12,11,-2,-6,1,69,32,4
-2,-18,-4,-4,6,-7,-66,10,4
-11,-1,-6,-4,7,-1,31,-8,4
11,31,19,2,-13,2,1,23,4
-7,-27,-18,-1,10,-1,-20,6,4
9,14,-3,0,9,1,47,0,4
-1,1,2,-3,4,-7,-67,12,4
-11,2,7,2,3,-4,-10,-47,4
2,7,20,1,-15,5,29,48,4
-1,-3,4,-1,6,-2,-10,-6,4
15,-3,-1,0,2,2,17,15,4
-2,-1,-4,-3,-3,-1,-1,15,4
6,-1,-5,2,-6,-1,-64,2,4
-6,9,10,-1,8,-4,46,-18,4
20,18,1,4,-15,4,33,22,4
5,-22,-4,0,9,-1,-43,10,4
-3,10,2,-1,7,1,21,8,4
-1,-7,-5,-2,0,-1,-14,19,4
-11,-13,-3,-2,-3,8,66,24,4
31,-4,0,2,1,-4,-48,83,4
-15,5,-3,-2,-8,0,-21,-37,4
0,19,-2,-1,0,-3,-27,-10,4
0,28,20,2,1,5,65,10,4
-23,-39,-32,-6,29,-7,-64,-23,4
-4,-16,-11,-2,8,4,34,11,4
-3,0,-3,0,3,-2,-74,13,4
-14,-23,-6,-1,9,-5,31,-66,4
10,-5,5,-3,5,6,73,24,4
14,9,-17,-4,-2,-3,-25,-2,4
-10,-17,2,0,4,-2,-12,-45,4
10,-4,3,0,3,-1,-8,0,4
-18,10,1,0,2,-1,22,-26,4
-8,2,3,1,-2,-4,-33,-9,4
1,-4,-14,-4,-1,4,51,13,4
10,3,-3,-1,-2,-2,-29,15,4
-32,-30,-8,-4,-4,-8,9,-32,4
4,12,4,-1,7,5,19,29,4
-5,-2,5,1,2,-2,2,-15,4
7,9,3,-1,-2,2,-1,1,4
3,17,3,0,-6,-1,8,-10,4
2,-16,4,2,6,-4,10,1,4
-1,3,3,4,4,7,37,16,4
12,-11,-17,-5,1,-10,-19,2,4
7,26,19,1,-5,5,23,22,4
-1,-4,-2,0,0,-1,-9,-3,4
7,9,9,1,-2,5,13,5,4
-1,-6,16,3,6,-2,-28,-44,4
2,44,25,0,0,-2,24,-12,4
17,-14,-13,0,-6,3,18,56,4
-11,-22,-21,-4,0,-6,-27,-49,4
-11,18,3,-1,-6,1,-26,8,4
10,-11,0,2,-5,1,29,-15,4
2,5,0,-1,-17,1,-3,0,4
11,36,30,4,-15,4,-13,18,4
-7,-8,-6,-2,-17,-4,0,20,4
6,-9,-8,3,-7,4,-56,7,4
-1,3,-2,-2,-10,0,58,-17,4
-2,-12,-4,-4,-4,-3,-40,6,4
-10,4,-4,-2,-8,-2,-21,-1,4
-3,-12,-7,-2,2,2,17,-12,4
-10,-10,3,2,-3,-1,-39,-24,4
7,35,15,1,1,0,40,7,4
-9,-22,-8,-2,-5,-3,0,-12,4
-1,-16,-10,-1,5,1,0,-4,4
1,0,4,0,-1,1,-5,-14,4
-1,-3,2,0,-14,-1,11,31,4
8,3,-23,0,0,4,-34,-9,4
-23,-27,-14,-6,13,-12,-8,-9,4
1,39,13,-2,2,-1,18,-19,4
4,-11,-1,1,-1,3,-15,7,4
-5,4,7,1,3,0,-12,-9,4
10,1,2,3,-13,6,11,-9,4
5,2,0,1,0,0,-10,7,4
-25,-25,-8,-7,-2,-9,-11,-56,4
-2,0,1,0,8,4,12,6,4
8,7,1,1,3,2,53,12,4
-14,-14,-8,-2,0,-6,-38,-12,4
7,7,9,1,10,4,33,10,4
-10,-6,-12,-1,7,-10,-60,-25,4
3,-2,-1,-1,-3,4,5,10,4
-3,-4,3,0,10,-2,2,-26,4
10,11,-7,0,2,2,12,3,4
-6,-7,3,-1,3,1,14,9,4
10,-11,-5,-2,6,-1,-18,-1,4
-8,-1,-7,-2,3,1,-16,8,4
-5,-7,-12,-2,-2,-8,-6,1,4
0,-3,4,0,-1,2,25,-21,4
2,6,3,2,-3,2,-3,9,4
1,-9,-4,-1,3,1,-24,-4,4
-1,-9,2,-1,3,-2,0,29,4
1,12,15,1,-2,4,20,21,4
3,5,-9,-2,2,-1,-20,-12,4
9,-10,-2,2,-1,4,28,34,4
-1,4,4,0,-2,0,-27,0,4
-5,-10,-15,-4,0,-5,13,-19,4
2,-1,-2,-1,4,0,-20,-4,4
-5,3,1,-2,-4,-2,-16,7,4
-7,-7,-2,-3,16,-5,15,-32,4
5,1,15,2,13,4,42,30,4
-6,-7,-4,0,-6,-3,-25,31,4
-3,-37,-10,-1,-3,-4,-33,6,4
-2,0,18,1,5,-1,10,18,4
11,-2,-4,1,-4,3,18,-9,4
-29,-2,-8,-3,3,-5,4,-21,4
5,6,-1,0,-9,2,9,24,4
2,0,-7,-1,3,1,-6,-11,4
-7,-8,-2,-2,-1,-4,-13,1,4
5,0,9,0,-2,1,0,1,4
2,-1,-14,1,-3,3,33,-1,4
-6,-4,-8,-1,2,-5,-56,-12,4
4,0,-2,-2,14,1,6,7,4
-5,-6,4,-2,-6,-4,6,14,4
-2,14,5,0,-5,0,-16,-20,4
2,-7,4,0,9,2,44,23,4
13,3,-5,1,-13,5,-10,19,4
16,-11,-8,-2,3,1,7,-33,4
-23,6,-2,-4,15,-6,-1,-17,4
4,5,-2,1,-17,3,-7,28,4
-1,4,0,2,1,2,-17,-20,4
5,-4,4,0,3,0,107,13,4
0,-8,5,0,-1,-9,-47,-13,4
0,25,7,-1,2,0,19,-42,4
-4,-9,-1,-3,3,0,-15,-5,4
5,20,8,3,-6,4,-19,2,4
10,16,21,3,-12,4,18,-5,4
-10,-7,-7,-2,3,-6,0,-21,4
-1,29,-2,-1,-20,-3,27,-3,4
-8,-15,0,-2,-3,0,-43,4,4
8,5,9,2,-1,-1,-15,1,4
0,-4,-8,-4,-4,-1,42,-26,4
3,15,0,2,-7,-2,-13,6,4
-13,6,1,-1,-10,-2,-14,-15,4
-4,-9,-10,0,-8,3,13,-1,4
-7,2,-1,-2,-11,0,14,-27,4
-4,-5,20,0,5,-4,-1,11,4
-7,0,-8,-3,2,-2,-30,3,4
9,-7,-7,-1,-4,6,30,28,4
-5,-2,-9,-2,-9,-3,-17,-5,4
-1,-12,1,-1,0,3,28,7,4
8,-3,4,0,-5,-1,-34,3,4
-2,8,-1,-3,-11,-1,24,-5,4
5,-14,-11,0,-2,0,-22,-5,4
-1,1,-5,-3,3,-2,-11,0,4
1,-1,0,1,-3,-2,7,37,4
-5,1,-8,-3,2,-8,-9,-30,4
0,-17,0,1,7,-2,-10,5,4
-5,-8,-3,0,-6,-1,-28,-12,4
4,-6,-5,-1,4,0,23,-17,4
-16,-3,3,-3,3,-3,-2,-7,4
-1,16,16,3,-1,0,6,13,4
-9,-27,-28,-4,4,-5,24,-40,4
-10,0,6,-2,-4,-1,-46,1,4
6,15,-17,-2,9,-4,6,-6,4
21,5,1,2,-18,7,-24,26,4
-18,-3,-27,-7,5,-10,34,-13,4
0,-12,-1,-1,5,-6,-54,-19,4
2,-6,3,2,-2,5,-11,10,4
-3,-2,-8,-3,3,-2,-4,16,4
4,4,10,1,-1,3,5,2,4
-1,-10,-5,0,5,0,8,8,4
-6,2,12,-1,3,1,11,28,4
-6,5,-10,-2,16,-3,-32,-39,4
2,-8,15,2,-1,2,-30,14,4
-6,2,-4,-6,1,-10,38,-16,4
6,3,2,1,4,4,-38,4,4
-1,-3,2,0,-9,3,17,13,4
-1,2,8,-2,0,-1,-6,15,4
9,14,1,1,-3,5,11,-3,4
0,-4,-1,-1,-2,0,31,-20,4
-2,-5,-3,-2,-6,-4,-39,32,4
9,4,1,0,4,0,4,22,4
11,-12,-7,2,-9,4,29,4,4
3,28,4,-1,1,-1,-10,-9,4
-9,-31,-1,1,7,-2,-16,-28,4
-21,10,-20,-6,-2,-7,6,-12,4
3,8,-2,-1,-5,2,7,1,4
0,-2,-4,0,-3,-1,9,4,4
18,6,-9,-2,-4,2,52,-24,4
-2,-6,14,-1,6,-3,-6,-13,4
-16,1,-3,-3,14,-1,13,-52,4
-5,-25,-2,-4,-2,-4,-23,10,4
5,6,-5,1,-7,2,65,37,4
3,-14,-2,1,3,4,10,-18,4
0,11,2,-1,-7,-2,-30,47,4
2,-4,3,1,1,0,10,-7,4
-7,-10,2,0,2,-2,5,-57,4
10,22,9,0,-2,-5,-36,36,4
6,6,2,0,5,0,3,19,4
9,-5,-1,1,-7,2,9,24,4
-6,2,0,-1,0,2,19,-3,4
-2,4,-1,-2,5,-2,-55,-8,4
-9,2,2,-1,0,-3,1,-21,4
2,-8,-2,-3,0,-4,22,9,4
3,-1,-14,-2,5,-2,3,14,4
9,1,3,3,5,8,26,11,4
-18,-8,0,0,4,-3,-6,-12,4
1,5,6,1,0,2,-14,-14,4
4,3,14,1,-10,-3,-21,30,4
-7,8,-2,-1,-4,1,19,-20,4
8,5,-6,-1,-9,1,22,-4,4
-4,2,-4,-1,4,-7,-76,-53,4
-2,-4,1,-2,-12,-1,4,14,4
5,-7,1,2,-9,3,1,-16,4
20,14,4,4,-9,4,20,13,4
-14,-10,-1,-1,-16,2,-15,-44,4
-2,-4,0,-4,3,-6,19,-9,4
5,6,-5,0,-8,0,26,-7,4
-1,-2,0,-1,-5,1,-6,1,4
-12,-7,-10,-3,1,-3,5,-23,4
-2,-5,-3,1,0,0,-22,27,4
9,3,3,-1,1,5,45,24,4
-15,-12,-10,-3,8,-5,-52,-14,4
7,2,-3,0,-9,1,14,6,4
-2,9,3,0,-6,-1,-3,9,4
1,-2,4,-1,2,-2,-7,47,4
4,-5,-8,-1,-8,-1,18,19,4
2,-1,2,-1,4,-2,-19,5,4
-3,4,-2,1,0,-1,-2,-2,4
4,-16,-11,-1,-2,1,-24,0,4
-15,-12,-7,2,-2,2,1,-24,4
-15,1,3,-6,21,-5,55,-39,4
12,12,14,1,12,1,-34,16,4
-3,-8,-5,0,1,-3,-9,-4,4
7,11,6,-2,3,-2,7,26,4
-4,-1,-8,-2,-9,2,27,-17,4
-8,-10,10,-1,13,-1,-9,20,4
-16,-3,-7,-3,-4,-3,-26,-27,4
13,-3,7,0,7,0,30,7,4
26,10,5,1,0,4,-12,69,4
-14,-9,-10,-2,-4,-2,-46,-10,4
0,-6,-6,-5,-2,-5,49,-4,4
0,9,4,0,11,0,10,-19,4
-1,-4,1,1,-15,4,6,17,4
0,-10,2,3,5,3,12,-11,4
-2,2,7,1,17,1,-22,-39,4
2,6,5,2,-3,3,12,8,4
3,-4,-2,1,5,0,-4,5,4
-7,-3,-2,-1,-5,-4,-16,-11,4
-17,1,3,-4,17,-9,-10,-46,4
4,-10,-5,-2,-4,-2,-14,5,4
3,3,0,1,-3,-1,-3,25,4
-2,-1,-5,0,-6,4,13,-27,4
11,-2,21,5,-11,5,1,20,4
-2,21,-6,-6,3,-5,-8,11,4
-10,-6,-3,-4,-1,-4,8,-3,4
-6,11,-3,1,0,4,30,-51,4
-6,-8,-1,-5,2,-9,-67,-28,4
8,-8,-6,-1,-8,2,-16,2,4
8,6,0,1,-9,1,20,3,4
13,2,2,0,-5,1,19,7,4
-11,0,-6,0,5,-1,12,-29,4
-3,-9,10,3,3,0,-15,-18,4
4,12,-3,-1,-9,-3,7,20,4
14,0,-2,0,-3,0,22,12,4
-5,1,-2,-1,-11,-1,-50,36,4
-3,1,2,-3,-23,-4,31,-26,4
-5,-7,-11,0,-8,5,-5,-16,4
3,4,-1,-3,2,0,5,9,4
9,10,-4,0,-9,3,1,32,4
-1,17,8,4,-12,1,16,37,4
-23,-37,-21,-6,3,-9,-44,-37,4
4,7,-1,0,-6,0,-31,-28,4
6,-6,-6,-2,13,-5,48,6,4
-4,-2,-8,-2,-9,1,-35,-21,4
1,-6,6,1,-6,3,23,-5,4
-1,-3,0,-1,3,-3,-8,13,4
2,5,1,1,-2,5,8,7,4
1,-30,3,-1,-2,-3,6,-7,4
-14,5,5,1,12,-6,-27,-45,4
-2,4,5,-1,4,3,32,4,4
0,4,-1,0,-2,0,-68,-7,4
9,-2,-7,0,-14,-2,-2,2,4
1,-24,-2,-3,-8,-1,1,25,4
-11,-17,-7,-6,4,-2,-4,-22,4
10,3,0,0,-15,5,47,20,4
-8,1,1,1,-22,2,-17,0,4
12,7,1,2,-9,-1,-3,-2,4
-14,-2,-4,-1,-9,-3,-7,-6,4
8,-6,4,1,-7,1,-24,22,4
-14,2,7,-3,-5,-3,30,-45,4
-1,8,-1,-4,-5,0,70,24,4
1,2,-14,-1,-8,-3,-48,15,4
-5,2,-5,1,9,-1,-19,-17,4
-6,-5,-5,-2,2,1,-7,3,4
-1,8,0,0,4,-1,5,-5,4
1,2,0,-2,-5,-3,-4,13,4
-5,-6,-2,-2,-9,-4,20,-15,4
4,23,17,2,17,-2,12,15,4
18,8,8,2,3,-2,-35,18,4
-9,-25,-1,-1,12,0,-9,-8,4
-1,9,1,-2,1,0,11,-14,4
-9,-18,-6,-1,2,0,20,22,4
-6,5,4,-4,13,-1,-10,11,4
10,9,3,3,-2,-1,3,28,4
-7,-1,0,-1,0,-3,11,-15,4
4,7,0,0,-2,-3,-36,-30,4
-5,-27,-33,-4,2,-1,-10,16,4
-4,-15,-2,-2,11,1,38,-2,4
-3,-4,-2,-2,9,-2,-14,-22,4
6,-7,-8,-2,-6,-3,-41,13,4
11,8,10,3,3,1,-1,30,4
-1,12,5,0,-4,2,5,17,4
2,-4,-8,1,-15,5,17,15,4
-6,4,-7,-3,9,-10,-5,-3,4
-10,-19,-8,-2,-7,-3,18,-37,4
-1,3,-6,-3,3,-2,-33,-36,4
-5,5,4,1,4,3,16,9,4
2,4,3,2,-15,4,6,-2,4
-3,7,6,-2,2,-1,-3,-7,4
-5,-35,-12,0,0,-2,-10,0,4
-4,-10,4,-1,-9,-1,13,5,4
0,-1,1,-2,8,-2,5,-7,4
5,10,2,3,-2,-1,0,3,4
3,15,-9,-2,-18,2,5,43,4
-7,-34,-33,-4,-15,0,6,24,4
2,-7,6,1,16,-1,16,8,4
5,10,8,2,-5,3,19,17,4
2,8,3,-1,6,-6,-47,-12,4
2,12,7,0,15,-1,11,-8,4
2,0,0,-2,10,1,4,-13,4
2,-1,0,0,-1,3,32,25,4
-1,-1,8,1,2,-2,-12,-8,4
-1,2,0,-3,8,-7,-3,-20,4
-2,4,-3,1,0,3,13,-5,4
-10,12,10,4,-6,2,-25,-19,4
3,2,4,-2,4,-1,41,-20,4
4,5,5,0,5,-2,-35,11,4
-1,-2,-3,0,1,3,1,20,4
-3,-25,-6,-1,-1,-2,0,-3,4
-1,5,-2,-1,-8,-1,6,39,4
-6,-6,1,2,-7,1,7,0,4
5,0,-2,-3,12,-4,1,22,4
0,6,1,-2,-7,-4,22,-7,4
4,-9,-3,3,-15,4,29,8,4
5,16,-1,0,-7,-1,-43,20,4
-4,-2,-4,-2,1,-2,12,-10,4
4,6,3,-2,-6,0,-23,-9,4
2,5,-15,-2,1,0,0,21,4
-17,-41,-21,-1,-5,-2,7,-24,4
-1,21,8,-1,9,-1,25,19,4
3,10,-5,-1,-1,2,24,2,4
-16,-1,6,-3,8,-10,-79,-53,4
-2,-1,6,-1,10,3,13,-7,4
0,-7,-3,1,-5,2,8,2,4
1,-4,4,-1,3,0,15,-8,4
3,4,3,-2,14,3,16,-3,4
15,20,6,-1,7,0,4,44,4
-8,-21,0,1,-2,-1,-12,1,4
8,18,15,1,-8,-2,6,31,4
-3,19,3,0,9,-5,28,-46,4
11,5,-3,-2,-5,-3,-43,-4,4
3,0,2,-1,-12,0,-12,-30,4
-4,-6,-3,1,1,1,-11,-15,4
2,0,7,-1,-13,-3,-4,-7,4
6,4,-32,-4,-27,1,23,12,4
-11,1,-11,-2,-15,0,-4,-36,4
-5,-2,-6,-1,-5,-3,-30,2,4
8,0,5,1,-7,2,-1,17,4
9,7,12,4,-27,0,2,10,4
7,-3,-2,-2,-2,0,23,37,4
-1,9,-7,-2,-2,-2,-43,7,4
4,-14,-1,-1,-6,4,23,8,4
1,-2,13,2,-2,-5,-15,-24,4
-7,-17,-10,-2,2,-3,-19,-26,4
2,3,12,0,4,-2,12,-3,4
5,-2,-5,2,-10,4,16,2,4
6,1,7,2,19,2,19,-17,4
3,1,-2,0,-1,1,9,9,4
13,-3,-5,1,0,-2,-27,40,4
-20,-8,-7,-5,-1,-3,-19,-35,4
-6,-1,7,-1,13,2,14,10,4
6,9,-7,-2,2,-3,-2,12,4
-1,-8,-4,0,6,2,23,8,4
1,6,3,2,-5,3,-7,-3,4
-15,18,1,-5,21,-8,16,-24,4
3,2,12,0,13,1,-13,1,4
-9,-6,1,-1,4,-1,5,-19,4
0,-5,-2,0,3,0,-12,6,4
-4,7,-2,-1,16,1,13,1,4
-5,0,1,1,4,-1,-4,-4,4
-7,-5,-14,-1,3,-2,-5,-57,4
-4,-9,2,1,1,1,25,11,4
1,-1,12,2,2,2,32,-11,4
-6,-8,-13,-4,9,-7,-76,17,4
-6,-13,4,0,6,0,-6,5,4
-1,8,-4,-2,0,-3,12,-30,4
1,-17,-16,-4,-2,-2,8,31,4
3,2,3,4,1,4,33,-4,4
0,10,-1,-4,8,-6,-13,9,4
-1,-2,5,-2,0,-4,-11,27,4
-8,4,6,0,-3,1,8,9,4
5,-2,-1,0,-2,-1,-5,16,4
-17,-15,-12,-3,3,0,-13,-30,4
2,20,5,0,10,-2,14,-5,4
-3,-18,-3,-1,13,0,-13,-1,4
3,3,-3,0,-3,0,-3,6,4
3,13,21,1,-8,4,34,-12,4
10,-3,-6,0,0,-2,-16,30,4
1,-3,8,4,-12,1,-15,5,4
-1,-8,3,2,0,-2,33,8,4
3,9,9,-2,13,-7,-5,-3,4
-2,1,-7,-3,2,-4,-17,-2,4
5,-2,-1,1,-9,0,-25,14,4
-8,-7,-4,-1,-4,3,10,-19,4
6,0,-3,0,-8,3,-2,25,4
2,-4,3,-2,-4,-1,4,35,4
-5,1,3,1,-15,-3,1,-19,4
1,-4,6,0,-8,-2,-24,-20,4
-4,22,-12,-5,9,1,42,1,4
11,12,2,2,-1,-6,-56,-25,4
-14,-20,-9,-7,-25,1,32,12,4
6,-1,-30,-1,4,0,-36,16,4
3,2,2,0,9,0,-19,-16,4
7,-3,8,1,-9,3,12,39,4
6,7,5,0,3,-1,46,43,4
-2,6,13,-2,13,-2,-31,-5,4
-11,-16,-12,0,-9,0,17,-8,4
-1,-6,-3,0,8,-2,-40,16,4
2,-14,-6,2,8,2,-38,-20,4
-2,16,9,-3,12,-2,78,3,4
16,11,15,2,7,-1,-49,12,4
-14,-5,-1,-1,-7,1,43,-34,4
1,1,1,-1,5,3,-10,-42,4
3,0,-3,0,-12,-3,8,10,4
-12,-10,26,3,-3,3,31,9,4
-33,-10,-40,-10,-8,-11,-21,-24,4
-2,12,-6,-5,-1,-2,-30,1,4
-5,-18,-6,0,-8,2,31,-4,4
2,-3,3,-2,-10,-1,-4,7,4
7,4,19,1,5,-3,-24,-18,4
5,4,3,-2,6,-2,12,-11,4
-1,-8,-1,-2,-8,2,26,-12,4
1,-1,-9,-1,-12,1,12,-22,4
-7,-11,6,2,-9,1,-23,16,4
-3,14,6,0,6,0,-6,10,4
5,8,4,0,0,-1,17,17,4
-1,-12,-5,-1,4,0,1,16,4
4,8,-28,-3,5,2,18,-25,4
-3,-3,0,0,5,0,22,8,4
-6,10,13,0,-9,-4,-40,-21,4
-12,-4,-14,0,-4,-2,-13,-36,4
-1,-15,4,1,15,1,18,-18,4
13,9,1,3,-4,4,22,26,4
3,8,0,-3,9,-7,-92,-7,4
8,-20,-11,1,-4,-2,14,-25,4
-8,-22,5,-2,1,0,-43,8,4
7,31,7,0,12,1,43,-22,4
5,0,0,0,1,-3,2,32,4
15,8,8,5,-17,8,-8,13,4
-12,-25,-19,-4,3,-3,17,1,4
4,-13,-5,-2,-1,-1,1,3,4
-3,4,14,2,1,-2,-14,-28,4
1,-3,-12,-7,11,-6,15,36,4
12,7,-5,0,-4,7,64,17,4
-8,-6,-3,-2,2,-8,-75,-30,4
3,10,5,1,-2,4,46,-14,4
2,-11,-3,-3,0,-3,-15,25,4
4,37,11,1,-2,0,7,-27,4
-10,-26,-7,-5,3,-3,-4,13,4
-2,-9,-10,0,-2,2,2,-35,4
-9,14,5,-3,6,-3,-22,-22,4
-3,2,1,-1,-6,-1,-5,19,4
-4,4,-2,1,-4,-3,8,-10,4
-2,-37,-16,-3,-9,5,15,53,4
-8,5,-6,-3,1,-1,15,-2,4
-17,3,14,-1,5,-7,-42,-80,4
4,-7,2,6,8,5,-6,7,4
-4,-9,-4,-2,3,-4,2,-3,4
5,0,-8,1,-6,2,-1,-4,4
-8,1,-4,-4,5,1,41,23,4
-4,-24,-4,-4,-6,-4,-31,-21,4
1,21,15,0,3,3,-29,0,4
3,-15,-4,1,4,-5,18,-6,4
-7,-20,0,-2,-3,0,22,40,4
5,11,-5,1,-14,2,13,43,4
-1,7,7,0,3,-1,-11,-5,4
3,4,0,0,-7,0,-7,20,4
7,-3,-1,2,-1,-3,-7,6,4
3,4,-4,1,-9,1,54,-8,4
-5,-4,1,-1,5,-6,-38,-6,4
-1,1,4,1,6,4,8,5,4
10,1,1,2,-1,3,8,21,4
4,11,5,0,-2,-4,-12,-10,4
-10,8,-5,-2,1,-2,6,-33,4
-15,-9,-11,-4,17,-3,-14,-34,4
9,3,1,0,-1,3,38,-2,4
5,13,-6,-1,6,-7,-61,20,4
11,11,-4,-2,16,0,-10,6,4
-1,-2,15,-2,-9,-3,12,3,4
9,0,-2,1,-4,3,-12,0,4
-1,7,-7,0,6,-2,-19,7,4
-7,-14,-5,-5,11,-7,-10,-58,4
5,8,-5,3,-2,6,5,16,4
5,13,4,-2,19,-3,-45,0,4
-6,-16,-4,-2,-9,-1,19,-14,4
1,0,-3,0,0,-1,15,-5,4
7,9,8,1,4,3,29,19,4
-13,-19,-9,0,-4,-4,-26,11,4
3,28,14,-2,17,-1,-2,3,4
7,4,16,2,-7,3,5,25,4
2,-1,-12,-1,-17,-2,3,13,4
5,3,8,-2,-14,-1,21,14,4
5,-11,-18,-2,-9,0,-4,38,4
2,2,1,3,-21,3,43,26,4
-5,-23,12,3,-3,-4,-67,2,4
-2,17,-1,-3,10,-1,18,-40,4
-7,-1,6,0,-11,0,19,-13,4
2,7,-1,-2,-11,4,38,-22,4
-15,3,-5,-2,3,-4,-66,-29,4
-2,-14,-4,-3,3,-5,12,33,4
-4,-10,5,0,-5,0,2,-13,4
-10,-9,-8,0,5,1,15,-26,4
-11,0,-5,0,2,-2,-7,-43,4
6,5,13,0,3,1,-13,-12,4
-10,-3,-2,-2,-8,-2,-19,-40,4
-1,-13,-5,0,3,-3,22,23,4
-4,7,-2,-2,5,-3,-38,-4,4
-8,-1,-4,1,-2,0,7,-32,4
2,-17,5,2,1,1,-13,11,4
-2,6,-14,0,-10,3,-6,7,4
4,8,-3,-6,11,-8,26,2,4
7,-4,3,2,-7,5,16,15,4
0,18,11,-1,10,-3,5,-21,4
7,2,-1,-4,9,-7,-44,9,4
-18,-11,-21,-1,3,1,19,1,4
7,0,-6,0,0,0,2,-20,4
-1,-1,-4,0,-7,1,3,12,4
-4,-5,-2,0,3,0,0,8,4
10,13,7,0,-6,1,28,5,4
2,10,-1,-1,9,-4,-24,10,4
-15,-8,-1,-1,9,-4,-62,-1,4
8,4,12,2,7,1,20,-21,4
2,-6,0,0,0,2,20,25,4
2,7,3,1,4,2,11,-11,4
-7,2,-10,-3,1,-5,-33,-29,4
6,0,-3,-2,1,0,8,4,4
-8,-3,0,0,5,2,-4,12,4
6,-8,8,2,-2,1,15,16,4
-1,-5,-8,0,12,3,18,14,4
0,12,13,3,2,2,-20,-12,4
5,-7,-7,1,3,-3,-45,-20,4
-14,7,7,-6,8,-8,39,23,4
17,-18,-8,-1,-10,-1,26,2,4
-16,3,-5,-2,2,-5,-16,40,4
10,8,4,0,-4,2,11,26,4
5,-7,-3,2,3,0,-25,-2,4
6,11,19,2,-1,1,21,6,4
-8,-6,-13,-1,-5,-2,-7,5,4
1,5,8,1,-3,0,0,-16,4
-1,-6,-6,-1,-16,-1,-11,13,4
5,11,0,-2,9,-4,-15,-9,4
-2,-2,-3,0,-2,3,55,-11,4
4,5,-2,-1,-3,1,-12,17,4
-12,-16,-22,-3,8,1,7,-50,4
3,-3,-2,-2,-8,0,1,1,4
-6,2,6,-1,2,-1,-23,-31,4
2,-4,-2,-1,-2,1,12,-14,4
-4,7,10,0,-2,-4,-23,15,4
-10,-7,-1,-2,2,3,39,-3,4
5,-8,-17,-1,-4,2,-18,3,4
1,-9,-1,-2,1,-2,7,-17,4
-13,4,5,1,12,-6,-104,-18,4
-2,-2,-3,3,7,2,27,-14,4
2,-4,-3,-1,0,-3,-2,-19,4
2,-8,9,2,6,0,3,-13,4
8,27,-1,0,14,3,50,63,4
-4,-12,-3,-2,-12,-4,-40,-8,4
-2,-4,-1,-3,9,-1,33,-2,4
-10,2,1,-1,3,-6,-25,14,4
4,-20,-2,0,2,8,58,-11,4
-13,-3,1,0,23,-7,-32,-25,4
10,10,7,0,-4,2,-2,38,4
2,-5,-6,-1,-6,-1,7,-23,4
4,2,12,3,-20,3,22,3,4
3,20,11,2,-18,3,32,23,4
6,-7,-16,-4,-13,-4,-26,20,4
-5,5,1,-1,-13,1,3,6,4
2,2,-6,-2,-3,0,-27,-35,4
6,6,3,-4,2,-1,6,13,4
-9,3,3,-1,-10,-3,-7,-4,4
1,6,3,0,2,0,-1,-10,4
10,1,-5,4,-29,8,27,31,4
-26,-10,-12,-6,-13,-15,-99,-46,4
4,2,0,1,-1,8,88,49,4
4,-2,-7,-4,2,-8,-79,1,4
0,-3,-1,-4,6,3,16,14,4
1,6,-2,2,0,2,22,11,4
6,-3,3,1,-3,-1,-21,-16,4
-5,-2,4,0,-2,-1,0,-4,4
-4,-16,-25,1,1,-2,-10,-22,4
5,4,2,-1,10,3,69,12,4
2,5,15,-2,7,-3,-19,-23,4
0,-8,-9,0,4,1,-22,-7,4
-8,7,-1,-4,5,-8,-2,-39,4
6,-13,-5,-1,-2,3,13,19,4
-5,-11,-1,1,3,-2,-14,-21,4
-1,25,23,0,19,0,10,-16,4
5,7,3,1,-23,0,22,48,4
6,-5,-1,4,0,2,1,5,4
8,1,1,-3,4,-1,-13,16,4
-14,-17,5,0,-15,1,17,-15,4
-14,4,7,-4,3,-7,-28,-40,4
14,6,0,2,0,7,44,6,4
10,-8,3,1,-3,0,-54,11,4
6,-3,-13,2,-14,10,80,31,4
-2,5,4,-3,24,-15,-83,-3,4
-27,-3,-12,-6,-2,-11,-58,-1,4
6,-13,-13,0,-5,3,60,44,4
7,18,7,-1,18,0,15,17,4
5,0,-13,-3,5,3,-2,-22,4
1,5,0,-1,9,3,-1,-9,4
-14,5,-2,0,9,-4,-34,-45,4
1,-4,1,-3,8,-6,-9,21,4
7,-5,6,1,17,3,18,25,4
8,2,2,1,5,0,11,9,4
-5,28,3,-1,3,3,68,-22,4
-6,-15,-4,-2,-1,-4,-72,-12,4
0,-1,-7,-1,2,2,6,0,4
0,-17,0,1,-14,1,18,3,4
0,12,-19,-1,-1,0,7,-2,4
-14,4,-2,3,9,-1,17,-48,4
13,-8,3,0,-5,2,-13,17,4
-6,-3,-7,-4,6,-1,-5,6,4
-5,-12,-1,1,0,-2,-43,-11,4
0,1,7,0,1,1,7,4,4
0,4,-9,-2,10,-4,51,19,4
14,-2,7,1,-3,2,17,14,4
-5,-6,5,-2,5,-5,-54,10,4
11,-15,-13,2,-10,4,24,2,4
2,11,19,0,2,1,10,29,4
-1,3,-3,-1,-5,-1,17,4,4
0,-6,5,1,3,1,3,-9,4
7,-1,-5,-4,-12,-6,5,16,4
-16,-13,-6,0,4,-1,-18,-20,4
-11,-2,-11,-1,10,0,3,-35,4
-11,-4,3,-5,1,-6,-10,-23,4
-7,-1,4,-1,10,-1,-1,-1,4
12,0,3,1,-8,3,9,20,4
1,6,3,2,-4,3,-11,17,4
1,-4,2,1,9,-1,-6,9,4
-3,6,-16,-5,0,-1,3,-45,4
2,3,-4,-3,2,-5,5,-57,4
6,-4,4,0,3,2,29,18,4
9,1,-4,2,-8,-2,-51,13,4
1,-1,1,-4,13,-2,-41,-71,4
1,-5,-3,2,-16,3,25,11,4
13,9,-2,-1,3,-1,5,4,4
-13,7,0,-2,-2,-4,15,-3,4
16,14,8,2,-11,7,27,66,4
-9,0,-20,0,-11,-3,-15,-33,4
1,-9,7,1,-12,-4,-38,-20,4
-3,-5,-4,1,-8,1,25,16,4
-5,-8,-1,-2,-8,-2,23,7,4
-7,-9,12,-1,-18,-2,-45,12,4
2,-12,-6,-1,-3,3,32,5,4
3,1,0,-2,-7,1,-9,-17,4
-11,6,6,0,-16,-2,-9,-8,4
6,-5,6,2,2,5,3,35,4
0,3,-1,-3,6,-5,33,-60,4
3,1,4,-1,13,-2,-35,-22,4
5,-4,-1,1,0,-1,16,16,4
5,8,5,0,1,4,13,23,4
-12,1,1,-1,-4,-1,-8,-5,4
-1,-7,0,0,5,-3,-2,-21,4
-3,3,-1,0,1,3,13,40,4
-15,-5,-5,-5,6,-4,-20,-10,4
-4,9,-4,-2,-5,-1,-14,7,4
-12,-13,9,-2,4,1,31,3,4
5,22,1,-1,11,-1,-20,-43,4
12,-13,-7,3,-2,2,18,-3,4
-14,-20,-3,-2,2,-9,-46,-2,4
7,22,9,-2,5,-1,21,32,4
-14,-13,-7,-1,4,-4,-26,-17,4
8,27,6,1,9,6,36,44,4
-18,-22,-7,-4,33,-9,-52,10,4
-7,-7,4,0,-5,3,23,1,4
6,-4,-5,-1,11,-1,12,-21,4
-8,1,-7,-1,15,-4,-21,-6,4
3,6,4,2,-3,3,8,17,4
3,2,-2,0,6,1,-5,-12,4
2,-7,0,1,-1,3,7,85,4
-7,-2,-2,-2,0,-5,-19,-16,4
11,10,2,0,5,3,36,4,4
-1,-4,-8,0,-3,-2,-38,8,4
5,-12,6,-2,2,3,72,26,4
-8,-12,-6,-3,7,-6,-57,-44,4
-5,12,-1,-1,0,1,16,10,4
3,2,-4,2,-2,2,6,8,4
2,11,-2,-3,9,-4,4,-14,4
-11,-11,-4,-4,1,-2,11,-16,4
5,0,4,0,5,1,14,-22,4
-20,-16,-16,-1,6,-2,-22,-47,4
3,8,-8,1,2,-1,5,15,4
13,-13,1,0,3,1,8,-17,4
2,5,-2,-1,-13,-1,-24,20,4
13,14,0,0,-4,1,54,-10,4
4,-2,-4,0,2,-3,-53,-12,4
-21,-11,-2,0,-10,-2,12,-15,4
5,-3,0,1,-8,3,28,9,4
4,-5,1,-2,-12,2,4,14,4
7,-26,-14,3,-9,2,-3,-3,4
-7,0,0,-7,1,-1,-4,-5,4
5,7,3,0,-7,-1,-18,19,4
3,1,0,-1,-9,2,19,2,4
-8,-3,-8,-3,-4,-2,7,-5,4
3,1,0,2,-1,-1,-11,4,4
-1,-14,1,0,-8,-1,-4,8,4
3,21,4,-1,-4,0,-7,-6,4
-6,6,11,0,-2,-2,-8,-11,4
5,3,9,2,-5,2,35,-1,4
-18,-6,-14,-2,2,-6,-68,-9,4
-1,-1,3,0,-8,-2,25,30,4
-9,2,1,-3,1,-2,-65,-20,4
7,11,-2,-1,-7,0,13,-2,4
10,3,2,0,-3,2,6,20,4
-20,-34,-10,-1,7,-8,-27,-21,4
1,12,-2,0,10,-1,19,-10,4
2,-8,-5,-1,-7,2,22,46,4
-2,5,11,1,3,4,-4,-25,4
11,24,5,-1,7,-3,-18,-15,4
-1,-3,14,1,-1,0,46,-13,4
-8,1,0,-1,7,-3,-33,-37,4
3,-5,3,0,6,-1,23,24,4
-9,-1,-8,0,0,2,-23,37,4
8,-5,-1,2,-12,2,11,11,4
2,6,-2,-1,1,1,9,15,4
8,-11,-4,1,-12,3,-25,-20,4
3,-10,-16,-6,-3,-4,5,-1,4
4,1,-3,0,-16,2,-1,21,4
-10,-17,-4,-2,-8,-5,-45,-13,4
3,10,-2,-2,-8,0,20,3,4
2,-3,5,0,-14,0,-11,12,4
-5,-3,0,-1,-4,0,3,-1,4
9,11,1,2,-3,4,0,-12,4
-9,0,-1,-2,8,-7,26,-18,4
-6,2,7,1,6,-2,15,-59,4
5,-10,-2,-2,5,2,64,33,4
-3,6,-10,-5,17,-5,-80,23,4
-2,2,-2,-1,3,3,12,-24,4
-5,-9,-4,-2,-4,1,26,7,4
-5,7,3,-1,10,-3,-52,-9,4
7,-5,3,2,-7,2,53,10,4
-7,-6,-4,-3,-2,-3,-17,-4,4
1,3,-2,-5,11,-4,-17,61,4
-7,-9,1,0,-8,0,11,1,4
6,9,-15,0,-3,0,13,32,4
-6,3,6,1,8,-3,-6,-25,4
7,-2,0,3,-14,5,6,5,4
-9,1,-2,-2,9,-3,-10,-6,4
9,-9,13,3,-12,4,-6,1,4
12,18,-17,-3,-3,-5,0,17,4
-3,-2,-3,-1,7,0,-3,-16,4
6,0,-3,-1,-3,-1,14,-13,4
-10,0,7,-1,8,-3,-3,-55,4
0,-9,1,2,6,0,-32,-7,4
-1,2,4,0,6,-3,-9,-13,4
5,1,-7,1,-5,2,14,-8,4
11,1,12,-2,-6,1,43,26,4
-6,-3,2,0,7,-5,15,-9,4
6,-3,-4,0,-6,1,14,8,4
0,7,2,-1,3,-2,-32,-3,4
5,-9,0,1,3,-1,-6,-17,4
1,3,3,-2,0,2,17,-7,4
5,-12,2,1,1,1,-3,8,4
3,9,13,1,-3,0,-8,25,4
-7,-23,-6,-1,6,-4,-3,-11,4
-1,-20,-14,2,-6,0,12,0,4
2,3,0,-5,3,-3,6,9,4
-19,2,3,-6,1,-6,-63,-23,4
1,5,1,-2,4,-2,37,-1,4
7,-1,1,-1,2,1,31,27,4
4,-1,5,1,6,2,2,-12,4
-2,-5,-5,1,0,0,-6,-21,4
-2,11,2,-1,7,2,0,12,4
-8,-9,-11,-4,11,-3,-15,-17,4
-4,-6,-2,-1,-1,-1,-12,17,4
2,-3,-4,-1,4,-2,-4,-5,4
-7,-2,-5,0,1,-6,1,-10,4
1,8,7,1,-7,0,-2,25,4
-2,0,-2,-1,10,-2,-15,-27,4
0,7,-4,0,-4,1,20,50,4
-5,-10,6,0,-1,-2,9,-2,4
2,1,9,0,-7,-1,-41,-1,4
1,17,-12,0,3,-1,11,-5,4
3,14,0,-1,-19,0,17,3,4
-6,-14,-5,-2,11,-1,-3,-25,4
1,15,0,-1,2,4,9,-15,4
-3,15,-1,-1,2,-2,-16,-21,4
2,-16,-8,1,3,-6,-31,-7,4
-3,0,-1,0,-7,3,-24,14,4
2,-15,-6,-1,-6,-1,28,14,4
-11,1,3,-6,14,-6,-41,-10,4
1,-6,-8,0,-7,3,14,-8,4
-8,13,0,0,-4,0,8,9,4
0,-11,0,0,1,0,-26,-29,4
-5,0,16,-1,3,-1,11,28,4
-4,-3,-7,-5,7,-7,27,-18,4
14,13,-4,-1,-7,0,9,42,4
3,29,11,1,-11,3,3,39,4
5,-11,-3,5,-10,-1,-4,-11,4
-3,6,13,1,8,3,37,-63,4
4,-5,-1,0,-14,-1,-29,-13,4
2,17,3,-2,-5,0,27,7,4
-5,-26,-5,0,-16,-2,-4,-8,4
7,-3,-1,-2,3,1,-9,22,4
6,1,0,-2,-10,1,22,14,4
-5,-10,-2,-1,-3,-2,-17,-11,4
-14,5,-10,-2,-5,-6,-18,-40,4
-4,-3,3,0,11,-1,21,27,4
6,3,1,1,-5,-2,10,5,4
-3,-5,-7,-1,-3,-2,-28,-17,4
6,-1,1,-2,-12,4,47,43,4
4,2,-5,0,1,0,-19,-10,4
-14,-7,-3,-3,6,-7,-27,-21,4
-1,-8,-5,-3,-5,-3,36,17,4
4,-6,-3,1,1,3,10,8,4
0,-13,0,-1,-8,1,-14,-6,4
7,6,-4,2,5,3,1,-3,4
-6,1,2,2,-4,3,30,3,4
6,-13,-4,2,-12,3,-28,4,4
-3,14,12,-1,8,-2,-6,-46,4
6,13,3,-1,-5,1,-13,-3,4
-6,2,-12,-2,-4,-5,-38,-5,4
3,-11,3,0,4,3,12,2,4
8,6,12,4,10,4,-1,65,4
-14,-6,9,-2,-2,-2,-5,-53,4
6,2,3,-1,10,-2,1,-21,4
5,10,5,0,0,-1,18,4,4
1,-9,-7,-2,-8,2,38,1,4
11,11,2,-3,11,-8,-74,1,4
-3,-14,-2,0,3,3,17,16,4
-11,8,5,2,7,-1,-8,-55,4
1,-4,2,0,-10,-1,14,23,4
-8,-21,-24,-3,-3,2,31,22,4
-1,-2,4,1,3,-1,-11,-23,4
3,10,-3,-1,6,0,-16,27,4
-7,-13,-9,-2,-14,-4,-3,-1,4
3,25,5,-1,7,0,11,14,4
-2,-9,-1,-1,-12,2,-14,17,4
8,-8,-3,-1,-2,0,2,5,4
-7,-9,-10,-2,-25,0,0,-3,4
-2,-8,1,0,-6,-2,21,23,4
10,-1,-3,0,7,0,8,8,4
11,15,3,0,0,-5,-40,20,4
-26,-19,-8,-2,-6,-1,-21,-28,4
2,-7,0,0,8,1,34,4,4
3,6,4,-1,9,2,-15,8,4
2,-1,0,0,-7,2,53,23,4
3,4,-4,-1,21,-1,-24,14,4
-2,-3,3,1,-6,-1,-12,-1,4
4,7,4,1,2,2,11,14,4
-6,-9,-2,-2,-1,0,-21,-22,4
7,-2,-10,-2,27,-2,6,-6,4
5,15,12,4,-5,4,6,16,4
-3,-3,-9,0,8,-2,6,-34,4
1,-3,-5,-5,6,-1,13,19,4
9,4,1,1,10,0,-28,15,4
10,2,-3,1,-4,5,5,55,4
-6,-8,-7,-3,0,-7,-1,-21,4
-9,35,7,-4,8,-1,34,-26,4
3,-1,1,-1,10,-2,-43,-9,4
3,-5,1,1,8,3,18,-6,4
9,15,12,0,-7,0,0,20,4
-9,-5,-11,-2,4,-1,15,-10,4
-2,7,2,-1,15,-3,-22,-51,4
-2,3,0,-2,0,0,-16,-10,4
-3,-7,0,1,5,4,4,27,4
2,1,2,1,7,2,24,7,4
1,10,-14,-1,10,0,-25,12,4
-5,-11,0,-4,1,-4,5,-11,4
1,10,-1,-4,7,-3,19,-3,4
0,-27,-15,-1,-2,0,-27,9,4
7,1,4,1,-5,0,18,24,4
-7,-18,-4,-1,5,0,6,-16,4
1,1,3,1,-4,-2,-4,-5,4
-3,0,2,0,-5,-6,-11,-10,4
8,1,16,2,-7,2,12,12,4
-6,7,-11,-2,3,-1,16,-31,4
-9,-9,-3,-2,-10,-4,-32,-49,4
-5,0,-2,-1,-4,-1,-14,4,4
-3,-4,-1,-2,-19,-2,15,13,4
10,6,2,1,-12,2,-3,-6,4
-20,-5,-2,-2,3,-5,-17,-24,4
-6,-11,-1,0,-5,-4,-13,-10,4
-5,1,0,-3,-21,-1,-6,-6,4
-10,-1,0,-1,-3,-1,9,19,4
14,15,6,-1,-9,1,-25,20,4
-4,-19,-6,-3,19,-1,-17,-4,4
-4,5,11,1,-26,4,60,-16,4
-1,-31,-32,0,-11,-3,-43,-5,4
3,32,10,-4,10,0,9,7,4
0,2,3,0,-7,3,42,-11,4
-4,2,-1,-1,-13,-1,4,-5,4
-2,-4,4,0,-7,-2,-41,16,4
8,-1,14,0,-8,-2,19,-3,4
-6,2,4,1,-11,4,24,10,4
-6,-4,-7,-3,27,-7,-47,-18,4
0,6,-2,0,6,0,24,-3,4
6,-11,-7,-1,-2,0,4,19,4
10,4,7,-1,-3,-2,-17,32,4
1,12,3,2,-4,3,8,2,4
-2,-8,-1,-4,2,-4,-40,-23,4
4,-7,-8,0,6,4,-5,11,4
11,4,7,1,-8,-1,-27,0,4
11,-5,-8,2,-2,3,78,59,4
-10,4,0,-9,13,-14,-80,-52,4
-1,1,-9,1,-11,5,34,22,4
7,-11,-2,1,2,2,-7,1,4
0,-5,-2,-2,17,-2,-28,-41,4
6,12,10,4,-2,5,77,43,4
-6,-24,-2,0,-10,-6,-9,21,4
10,27,-1,0,3,0,41,37,4
-5,-18,6,-3,4,-5,-31,24,4
-2,-2,-2,1,-5,0,43,40,4
-9,-9,-6,-7,13,-1,-16,-22,4
7,10,4,2,-6,3,24,5,4
0,2,0,0,5,4,2,-1,4
3,-3,-14,-3,2,-2,-6,-16,4
-9,-12,-4,-1,4,-3,-4,-14,4
-4,2,1,1,2,5,-14,-33,4
-8,-12,-9,-4,4,-12,-70,-15,4
17,10,13,6,-13,12,5,19,4
-33,-29,-26,-12,30,-17,-20,-89,4
-1,-3,-8,-5,11,-4,13,-8,4
-7,9,8,3,-5,3,-34,-15,4
18,15,3,2,-10,4,51,23,4
7,13,12,3,-16,5,-6,27,4
2,-18,-8,-4,11,-5,-19,6,4
5,-5,-5,-2,1,-1,32,-2,4
-11,-5,11,-1,-3,-7,-23,-56,4
2,20,4,0,-2,2,44,10,4
7,2,-1,0,-12,-5,-46,5,4
7,25,2,1,-10,8,51,0,4
7,-20,-8,-4,14,-12,-62,35,4
16,16,13,4,-13,2,-1,15,4
-10,-11,-12,-2,-4,-1,-51,-27,4
-1,-4,-11,-4,8,-5,51,-10,4
-17,-13,-10,-3,4,4,7,-47,4
2,1,1,1,11,0,-10,-34,4
-11,11,-3,-1,9,-6,0,-19,4
-17,-36,-15,-5,4,-8,-62,-41,4
-16,10,2,-3,4,2,48,-22,4
3,-9,-8,1,6,2,-5,13,4
-7,-5,8,0,0,6,14,0,4
7,9,5,-3,1,0,32,2,4
-1,4,3,-1,-3,1,29,16,4
7,-17,-21,0,-5,0,-21,-5,4
5,4,4,1,-10,1,15,0,4
12,-3,-1,3,2,2,9,22,4
5,37,31,3,-13,3,-44,22,4
-7,-8,-15,-4,-9,-1,66,35,4
-1,0,-4,-3,-7,-1,-25,-35,4
-10,3,3,1,-5,-2,-26,2,4
-4,-20,-4,0,-12,2,11,-18,4
-3,-2,4,3,12,-3,-111,-69,4
-14,21,12,-2,-10,-1,82,32,4
1,-13,-6,-2,-9,-1,-23,-35,4
2,-5,-7,-1,4,-3,-5,-15,4
-16,4,5,-2,3,5,13,-39,4
9,-7,-9,-2,-5,0,-21,0,4
-1,10,5,2,3,0,-7,6,4
4,-2,-4,0,6,-2,18,22,4
-2,-11,11,-2,-13,-1,18,25,4
-11,7,13,1,11,0,41,-2,4
-4,1,8,-1,-8,-4,5,-11,4
-6,-5,-7,-3,14,-5,-31,4,4
15,-2,-9,1,-5,0,25,25,4
2,-8,-5,1,2,-1,-37,-18,4
2,-4,-5,-3,-3,1,22,12,4
2,-3,-5,0,17,-1,-1,46,4
-8,9,-1,-1,-7,-3,-19,-10,4
-5,-20,8,-3,10,0,-8,-17,4
8,5,-12,1,11,4,23,27,4
1,-2,5,1,12,-2,-52,-48,4
3,-13,-6,-2,-1,4,50,44,4
-1,-1,-3,-2,15,-7,-46,-8,4
4,7,6,2,-12,3,16,17,4
-3,-6,-4,-3,4,-4,35,-11,4
4,7,3,1,5,3,-6,1,4
1,-4,-7,-2,9,-3,14,5,4
6,6,1,0,11,1,4,16,4
-16,-9,-4,-1,4,1,31,-33,4
6,1,10,2,3,-4,-66,17,4
-2,1,-1,-1,11,0,15,3,4
-11,-11,-11,-1,16,-2,-5,-22,4
19,3,-5,-2,-14,7,50,56,4
-3,6,6,-1,0,-2,-33,11,4
1,-10,-3,2,10,2,28,1,4
-13,-3,-7,-4,4,-4,-35,-27,4
5,19,15,1,1,5,12,8,4
1,-10,-8,-4,5,-4,52,25,4
2,3,-7,0,-8,4,3,-7,4
-3,-3,0,-2,7,-1,-47,4,4
-33,-6,4,-3,0,-13,-36,-26,4
-2,-21,-11,0,-2,3,10,-1,4
10,4,0,2,10,4,-10,8,4
-1,6,3,-3,-5,-1,9,-9,4
-11,-21,-10,-3,3,-3,-26,-16,4
4,2,-3,-1,3,-6,9,15,4
-6,11,-11,-5,-12,-4,9,34,4
-6,-3,-3,1,-3,-3,-34,-2,4
10,7,-3,2,-1,4,-1,14,4
-5,11,6,-1,-6,-1,14,11,4
3,-5,3,1,-16,0,-7,9,4
0,1,6,-2,2,-6,32,-11,4
-3,-11,-3,1,-2,1,-2,16,4
25,17,7,5,-15,9,-5,41,4
-22,-10,7,-6,3,-8,30,-23,4
2,4,-2,0,-1,-3,-86,-3,4
-9,-10,-6,-2,-4,0,50,-26,4
3,6,-3,-3,10,-4,-46,-21,4
15,-6,-9,4,-9,3,-11,6,4
14,4,6,-1,-6,-1,47,53,4
1,19,13,-3,6,-3,-13,-24,4
-4,6,0,1,5,2,2,-2,4
10,-5,6,1,-2,1,3,5,4
-7,-11,-10,-1,-6,0,12,-29,4
13,15,4,1,-7,-2,-9,-9,4
-14,12,8,0,10,2,33,16,4
-1,-7,-5,2,-13,3,-18,-10,4
-8,-16,3,-1,-8,0,33,-2,4
11,40,20,1,6,0,-45,15,4
-6,-17,-18,-6,2,-2,3,-28,4
1,5,-3,0,-3,2,-6,1,4
3,11,2,2,-5,3,49,4,4
-1,-26,-10,-1,-6,-4,-66,-10,4
10,2,0,-2,-12,2,8,24,4
-5,2,4,0,-11,1,5,-17,4
6,5,5,-1,-13,3,16,14,4
2,-6,-7,-3,-13,0,31,16,4
-7,-1,8,-2,-6,-4,-17,-59,4
-2,1,7,-1,-12,-3,9,22,4
-1,-6,-1,1,-7,1,-16,-4,4
0,-2,-32,-3,-3,0,-21,5,4
-8,-9,2,1,-6,-3,15,5,4
-3,-12,5,-2,14,-1,8,37,4
2,10,2,1,-8,4,-7,-9,4
-10,-24,-22,-3,-6,-6,1,20,4
-5,37,7,-5,13,-4,-24,-30,4
9,-1,-10,1,11,-1,2,1,4
18,9,7,0,9,-4,-48,31,4
-8,-5,0,1,13,1,46,-26,4
4,2,-1,1,5,0,-22,7,4
6,-2,-3,0,12,0,10,-22,4
-17,-2,-3,-4,4,-1,-25,-33,4
8,7,9,3,-4,5,26,7,4
-7,-19,-6,-1,7,-5,-7,-44,4
-1,14,16,-1,6,-1,1,-7,4
-3,-4,-2,-1,12,-1,-27,-3,4
-2,0,4,1,-2,3,68,-13,4
-3,-7,8,2,11,-1,-43,-1,4
-13,-3,-13,1,8,-5,-26,-25,4
-1,1,0,1,0,-4,-4,-15,4
-6,-10,20,1,1,-3,-25,7,4
-2,30,9,3,16,4,14,19,4
-5,14,-3,-5,-6,-5,47,12,4
-4,-7,5,-3,-1,-3,18,43,4
10,4,4,1,18,-1,-50,21,4
6,-27,-11,-1,-15,0,13,-9,4
2,7,1,0,-4,7,30,3,4
-5,3,2,1,17,-2,-52,-46,4
6,13,4,-2,-6,-2,1,32,4
-3,-25,-8,-2,-10,0,28,11,4
5,-3,-6,-1,0,-2,-21,-45,4
-7,-18,-20,-4,-5,0,26,-7,4
-2,-3,-18,-2,-8,2,-14,-17,4
5,3,-1,0,3,1,-1,23,4
-3,-12,-2,-1,-10,-4,0,22,4
15,3,5,3,-6,5,18,19,4
1,6,-3,0,0,-3,-25,-30,4
1,-8,0,1,5,4,61,2,4
-5,-5,0,-3,13,-7,-52,-9,4
1,4,1,1,-8,1,34,58,4
4,0,0,1,-1,0,-18,-5,4
2,-6,-5,-1,-6,-4,3,15,4
1,22,19,2,-3,0,-34,-3,4
0,12,-2,1,-1,2,55,13,4
-13,-8,0,-2,6,-2,-45,-25,4
4,8,-1,1,0,0,10,3,4
-3,-22,-2,1,-3,0,-8,-18,4
3,0,0,0,-5,-2,1,5,4
3,6,0,-1,-6,1,43,34,4
5,-2,-3,-2,0,-1,-18,-24,4
-2,2,-2,-2,2,1,9,2,4
-7,-13,-4,-2,-11,-2,0,-20,4
2,14,2,-2,8,-1,-19,2,4
-8,-2,-2,-2,-7,-2,-4,2,4
1,-6,-6,-1,0,-1,2,-15,4
7,3,21,0,-1,-2,-5,13,4
-3,9,5,0,2,3,13,-31,4
-14,-16,-3,-1,-3,-2,32,-15,4
3,1,-8,-2,-1,-4,-26,17,4
-4,-1,-1,-1,7,0,-25,-11,4
2,-2,-3,-1,2,1,14,15,4
7,-9,-2,0,7,2,17,3,4
0,13,8,0,-2,0,20,20,4
0,0,-7,-2,-1,-1,-6,-12,4
4,-9,9,-1,1,-2,15,21,4
-2,-13,-9,0,-4,-1,-21,-2,4
0,-3,-4,-1,-9,1,10,17,4
-1,13,-1,0,-4,0,-1,-35,4
-8,-23,-4,-2,-13,-3,-13,11,4
4,23,5,-3,-16,3,23,11,4
3,0,-3,0,-16,0,-30,-5,4
4,0,1,1,9,6,26,9,4
-9,-6,-3,-2,-5,-14,-73,-49,4
-1,-1,8,2,-17,1,28,11,4
-4,13,-4,-2,6,0,-17,-39,4
-8,3,-1,-2,-1,-2,13,-16,4
8,4,-1,0,-6,4,21,9,4
-8,-4,6,2,2,0,-21,26,4
1,-4,0,-1,4,0,-4,-34,4
0,9,-6,-2,-1,-1,0,-37,4
-14,-10,-2,-1,1,-1,15,-2,4
-1,-4,-5,0,-9,-4,-18,0,4
2,5,19,2,-10,3,23,18,4
-18,4,0,-2,21,-3,-18,2,4
11,-11,-8,-1,0,4,56,9,4
-5,3,-15,-5,11,-13,-67,-39,4
7,-10,-4,3,-6,-3,47,30,4
5,-5,0,1,12,22,-46,-35,4
-6,1,-2,-1,-3,12,14,11,4
0,-2,6,-1,11,-3,38,26,4
6,3,0,-1,-5,-11,-43,66,4
-10,-10,-6,-3,-18,-15,32,-14,4
13,2,0,2,-1,2,14,50,4
-6,6,1,1,9,6,-3,-20,4
-1,-3,1,0,4,0,-1,-21,4
-3,-5,-13,-5,-4,-10,-57,11,4
-3,-7,-1,-1,5,0,3,-5,4
6,3,2,-3,1,-5,-36,-17,4
8,-1,-3,0,0,9,21,44,4
3,-4,10,4,2,2,15,13,4
-6,-13,-5,-3,11,-6,-18,-40,4
2,6,4,-1,-11,0,0,8,4
-8,0,-3,0,2,1,7,-16,4
12,-3,4,2,-6,-1,0,1,4
-1,10,-2,-4,5,-7,3,4,4
0,-21,1,1,8,7,-5,6,4
-4,0,-1,-2,-2,0,-37,-21,4
8,1,-1,0,-1,0,50,16,4
3,4,0,1,2,-2,-27,-6,4
1,4,0,-1,-3,1,15,-4,4
-11,-5,-5,-1,8,-1,37,13,4
4,-2,-1,1,1,0,-21,33,4
-1,-3,-12,-1,-5,0,-4,-23,4
-1,4,-3,-2,13,1,24,-9,4
3,-35,-5,2,-2,3,11,0,4
-6,6,-4,-3,2,-6,-18,-4,4
4,6,8,1,-4,4,-3,-2,4
4,6,0,0,-4,1,6,10,4
-5,1,-1,0,11,0,15,-14,4
2,-3,-1,0,-7,-1,-42,1,4
-14,-6,-9,-2,17,0,8,-20,4
-5,0,-4,-1,6,-4,-28,-9,4
-2,0,0,-1,6,3,-5,9,4
2,-9,-6,0,-6,-1,16,11,4
-12,1,5,0,7,-4,1,-33,4
-8,4,-7,-2,-3,0,2,-23,4
8,14,0,-2,5,-1,-15,-7,4
-5,0,-6,0,3,-3,6,-15,4
5,-4,-13,0,-9,1,22,-2,4
-12,-17,-1,0,9,-1,0,1,4
3,4,-1,-2,-13,-3,-6,32,4
-10,9,-2,-1,9,-3,-29,-20,4
1,-3,6,-2,7,0,15,30,4
6,5,-1,-1,-2,0,-16,19,4
-21,-11,-1,0,0,-1,4,-47,4
-2,-5,-3,-3,-2,2,11,7,4
5,7,7,2,6,0,8,41,4
3,0,3,-1,-8,1,-7,24,4
-9,-21,-9,-2,3,-5,-4,-25,4
-1,29,18,-2,-2,-3,2,12,4
-5,-13,-5,-1,-7,-2,-21,10,4
-6,-6,-8,-2,-3,-2,42,-38,4
2,12,-11,-3,-4,-2,-54,-22,4
7,-17,2,0,-10,4,47,3,4
2,0,1,-1,-11,-4,-45,6,4
3,-4,6,0,-7,3,32,1,4
-3,-12,-17,-1,-10,-2,2,-12,4
-4,6,-3,1,-4,-2,2,-19,4
7,9,6,0,-3,1,12,-1,4
-1,-10,-7,-3,-13,-1,-19,-6,4
0,-3,1,-2,-5,-3,2,8,4
-4,-6,-1,-1,-1,0,-5,-28,4
7,-4,-1,0,-7,1,20,8,4
-2,14,5,-1,1,-4,-18,-27,4
6,10,5,-3,-4,2,12,0,4
-7,-14,-5,-2,-2,-2,14,3,4
-2,7,5,0,-1,-3,9,-10,4
-4,-3,-2,-1,0,-1,30,-34,4
2,1,-1,1,-1,-3,-54,-6,4
11,-1,-1,1,0,1,9,17,4
-9,1,0,0,-4,2,-24,-37,4
-2,1,-3,0,7,-7,12,16,4
5,2,3,1,1,0,-1,-1,4
-1,-3,-1,0,-11,2,0,-14,4
10,16,1,0,-1,4,13,-1,4
16,6,25,4,-11,9,49,69,4
-17,4,-4,-4,-3,-13,-75,-41,4
-2,-8,-1,0,0,1,3,2,4
0,-3,-24,-4,23,-2,43,5,4
4,-19,-5,-2,-5,2,9,26,4
5,-3,3,0,1,-1,-5,18,4
-4,6,1,-2,-4,2,12,13,4
-2,-4,4,-1,-9,-3,-24,26,4
-8,2,-3,-2,10,0,-3,-29,4
4,-11,-4,0,-4,2,30,30,4
-8,-13,-13,-5,7,-3,-10,-27,4
1,1,5,1,2,-1,10,-16,4
1,5,-5,-1,6,-3,-48,-2,4
-1,-2,3,1,1,4,20,-20,4
4,23,3,0,0,-5,-49,22,4
-26,-12,4,-1,-4,-1,26,-25,4
-9,5,-7,-4,8,-7,-39,6,4
1,3,11,1,-19,4,36,9,4
-5,-43,-33,0,0,-2,-28,-5,4
8,21,15,0,6,1,-4,3,4
-9,-2,-3,-3,-4,-4,-8,7,4
-8,1,0,-4,-13,-2,0,-4,4
-1,-11,6,-2,-4,0,21,10,4
8,-4,-2,0,-9,0,-10,22,4
9,2,2,2,-5,3,8,32,4
4,1,-9,-1,-4,4,14,34,4
1,13,5,-2,-3,-6,-31,-14,4
-5,-38,-18,-3,-3,-2,7,27,4
5,23,0,-2,18,2,3,-36,4
2,-2,1,0,1,0,2,-7,4
-5,-4,3,1,0,-1,27,7,4
1,1,-3,-1,5,0,-24,-4,4
3,-4,4,1,-3,-1,8,2,4
-2,0,8,0,-9,-2,-9,-36,4
0,-17,-15,-5,9,-1,9,3,4
1,8,8,-1,-5,0,19,-14,4
1,-5,-4,-1,-7,0,-22,11,4
-21,4,-2,-1,-3,-4,44,-44,4
13,5,9,2,-11,3,-19,-4,4
-8,0,-3,-3,-2,-1,1,1,4
2,-6,-3,2,12,3,-22,-11,4
6,-2,-4,-1,-19,-4,31,41,4
5,-6,4,-2,-3,-2,22,-14,4
10,5,1,0,14,-1,-15,-11,4
1,4,3,-1,-12,-1,-1,-4,4
4,5,7,0,-5,2,-28,27,4
0,-13,-9,-1,15,-3,9,36,4
-4,16,-6,1,4,-3,-8,-32,4
-3,-19,-4,-2,-9,-2,15,16,4
-5,-4,4,-1,17,0,-11,-30,4
0,24,-12,-4,-8,0,21,20,4
7,-16,-5,-1,7,3,7,-3,4
-11,-5,-3,-4,0,-10,-79,5,4
1,-5,-22,-1,-3,-1,-12,3,4
-3,2,7,2,-6,2,20,-18,4
5,12,8,-2,-4,-2,-1,20,4
-2,3,-4,-1,-15,1,15,-11,4
0,8,7,1,-16,0,-1,-7,4
-4,-16,-3,0,-2,1,-21,-10,4
1,-1,1,2,-13,1,38,20,4
3,-2,0,-2,5,-1,-43,-29,4
11,4,-2,-2,-17,1,22,38,4
-5,-4,5,-2,1,-3,-15,10,4
-6,-1,-13,-1,1,-1,-35,-17,4
0,22,2,1,-2,3,57,11,4
-11,-12,-15,-4,-10,-6,-49,-15,4
3,-1,5,0,0,5,2,22,4
-1,-10,4,0,-2,-2,3,-1,4
10,5,0,1,-5,1,9,18,4
-2,0,2,-2,3,-8,-46,-39,4
-5,5,8,0,-17,0,40,-11,4
-13,-1,3,-2,10,-5,-39,-40,4
0,-18,-4,2,-20,3,20,15,4
1,2,-6,0,9,3,24,-2,4
2,5,13,0,-1,-1,-10,-1,4
12,8,6,1,-5,0,7,5,4
-2,5,-4,-4,-5,-3,-8,-5,4
2,-27,2,-2,12,-2,8,-3,4
-2,2,-3,1,3,0,-19,-10,4
2,14,11,0,-2,-4,-17,11,4
0,-18,-5,-1,17,-2,17,0,4
-1,4,4,1,-1,2,12,17,4
-1,13,3,-2,4,-3,0,-15,4
0,6,1,0,-3,0,15,2,4
-4,-5,-7,-3,2,-5,-14,4,4
-2,13,2,-1,24,0,-2,-26,4
-5,-11,-6,-2,3,3,-9,-15,4
-4,-1,-6,-2,-7,-4,-28,0,4
-9,5,6,-1,9,0,36,-18,4
11,6,-1,0,10,-1,-43,-21,4
1,3,-9,-2,-3,-4,30,48,4
-2,-17,-7,1,12,-1,5,-15,4
5,17,13,-1,11,-1,-6,6,4
-4,-1,1,-1,-6,-3,3,4,4
-3,7,10,0,11,-1,12,2,4
6,6,-6,-2,-7,0,8,12,4
-4,-12,-3,2,-3,-1,-11,-39,4
-10,2,2,0,-4,1,27,28,4
-11,0,-15,-2,8,-1,-42,-21,4
-2,-9,-13,1,-11,-1,9,10,4
11,17,5,0,-5,1,5,7,4
0,6,-2,-2,3,-3,24,-28,4
3,5,3,1,1,-2,-5,13,4
5,-3,5,-1,3,1,6,-18,4
-1,-13,-6,-1,-14,0,-37,9,4
4,-8,-3,2,4,2,56,2,4
6,6,2,1,7,-4,-24,-11,4
-10,2,10,-2,2,-2,26,-6,4
0,10,2,-2,5,-1,19,-2,4
-2,4,6,3,2,1,6,10,4
0,-4,0,0,-6,-2,-24,-16,4
1,4,2,-1,-2,1,-10,9,4
-14,-3,-1,2,2,1,5,6,4
-11,-18,-12,-4,-3,-2,16,6,4
13,3,1,-1,1,-2,-24,16,4
-1,-10,-7,-1,3,1,-5,5,4
-4,5,-1,-2,-7,-2,-4,-12,4
3,5,10,2,3,4,-15,4,4
-3,12,-1,0,-2,0,45,-9,4
-8,-5,-3,-4,5,-4,-36,11,4
6,13,1,1,-19,-1,11,-7,4
-1,-10,-5,-3,9,-1,-17,-45,4
-5,-3,2,-2,-7,2,9,25,4
10,4,10,4,1,4,8,-4,4
-13,-1,3,-3,-4,-1,6,-17,4
0,-7,-6,0,-9,-1,-38,25,4
6,-2,4,2,-5,1,21,14,4
-5,-1,2,-1,-6,-4,-18,-28,4
4,-10,0,0,-4,0,8,-4,4
2,4,0,-1,-6,-2,18,2,4
2,-2,3,1,-5,3,3,-33,4
-9,2,2,1,-5,-4,-34,-40,4
7,-4,-5,0,-3,3,22,41,4
-3,1,-2,-3,-6,-5,-47,16,4
-10,-9,-18,-5,-6,-2,20,-30,4
7,6,-16,-3,-13,0,-2,44,4
0,-8,-3,0,15,-4,-9,-61,4
3,-15,-5,1,-1,4,45,10,4
-3,-5,8,-4,13,-5,-86,-13,4
6,3,18,3,-1,3,47,24,4
3,-6,-6,0,16,-1,-37,1,4
0,10,4,0,4,0,6,-2,4
2,4,4,1,-1,0,22,-3,4
9,-2,1,1,2,0,5,2,4
-7,29,12,-2,6,-2,-14,2,4
-10,-9,-2,-1,-2,1,26,-8,4
2,15,6,-2,5,-2,-13,14,4
3,2,-9,0,3,3,21,16,4
3,-4,-2,1,7,-1,-50,4,4
2,8,-10,-1,1,1,-17,0,4
-6,-5,-4,-1,-4,1,43,1,4
-1,-2,9,-1,5,-1,-13,-53,4
-10,-7,-11,-3,-1,-3,24,-15,4
3,-11,6,0,3,-2,-13,5,4
-1,-8,-6,0,3,1,1,-13,4
2,5,-5,-3,10,-3,-11,-13,4
6,-5,0,-1,-6,2,40,42,4
2,9,0,1,6,-1,-22,-8,4
-2,2,-2,1,6,-1,6,-9,4
5,4,3,0,-7,2,13,49,4
-9,-5,-6,-1,2,-1,4,1,4
4,3,2,-1,2,3,40,14,4
-2,-3,1,-2,3,-3,-50,15,4
4,-8,-11,0,-4,4,14,21,4
13,3,-11,-2,11,1,-17,-15,4
-12,-18,-6,-2,-3,-4,-44,-8,4
-1,-8,-6,1,-1,1,33,0,4
-5,-2,0,0,6,-2,11,1,4
-6,-9,3,-1,-19,-2,-7,-38,4
3,4,-6,-2,2,0,12,1,4
5,4,5,1,5,2,17,7,4
-12,-1,-3,-1,0,-1,-45,-10,4
-3,6,6,-1,-16,-2,1,-13,4
7,19,9,2,-10,5,67,37,4
-9,-12,-4,-3,3,-12,-87,-19,4
-10,1,-4,-1,13,-3,21,-28,4
9,-3,-1,0,-9,2,18,21,4
-1,-2,-1,-2,-5,-2,-40,-22,4
4,0,-6,0,0,2,17,18,4
-3,-10,-12,-2,-6,-3,3,-3,4
-3,-1,4,0,6,-3,-15,-3,4
-7,-1,0,-2,0,-2,5,-10,4
4,1,2,1,-3,1,11,-7,4
-10,-4,0,-3,2,-2,-20,-15,4
0,-5,-1,1,1,4,7,23,4
1,-1,-3,-2,-3,-2,15,5,4
1,3,7,0,1,3,4,-15,4
10,6,0,3,-8,3,12,25,4
-6,1,1,0,5,-3,-19,-31,4
3,4,1,-1,4,-5,-3,-12,4
1,1,1,-2,-6,0,2,0,4
0,2,4,0,-11,2,-2,15,4
3,-3,-2,0,8,0,-3,-48,4
2,0,0,2,-1,1,6,-1,4
-1,-16,-3,-1,-3,-2,26,23,4
-3,6,6,-3,9,-5,-22,9,4
-2,1,-12,0,0,0,26,24,4
1,-5,-1,0,5,-2,-19,-5,4
-1,9,-1,-1,5,0,23,9,4
-13,-7,-2,-4,2,-1,26,-28,4
-3,-5,1,-2,-4,-1,23,24,4
-1,0,0,0,-3,-1,-65,5,4
-2,14,-3,-1,-14,1,15,12,4
-3,-20,-3,-2,3,-2,-5,-11,4
4,4,1,-1,0,0,0,-19,4
1,-2,-2,-2,-5,0,9,12,4
1,3,1,1,-16,3,6,-3,4
-8,1,9,1,-1,-2,-23,1,4
4,-7,-5,0,-5,-1,-5,-2,4
-14,-1,0,0,-15,2,21,10,4
-6,-6,-4,-2,6,-3,13,-44,4
7,7,9,2,-8,3,14,15,4
0,-7,-11,-1,-7,-3,-6,15,4
2,2,-14,-1,-5,0,49,6,4
2,-6,-3,0,5,-3,-53,-2,4
-1,3,-1,0,-3,-3,37,-8,4
-6,-5,-5,-3,5,-4,-14,9,4
7,5,3,0,2,2,0,-19,4
0,-5,-2,-2,-10,-1,-8,41,4
5,-3,-8,-2,-2,-1,-30,-15,4
-1,11,1,-1,-2,-4,21,-7,4
0,-4,0,-3,6,-2,-26,9,4
1,-1,-1,2,6,1,14,-5,4
5,-2,-1,-2,10,0,-10,6,4
-4,2,-4,-2,-12,1,10,1,4
-5,2,0,-1,4,-2,-13,-9,4
5,4,5,0,7,-1,16,-16,4
-4,-9,-10,0,6,2,15,8,4
2,-5,9,0,3,2,5,-15,4
4,-5,-14,-2,1,-1,-13,20,4
-13,-2,4,-1,15,0,7,-14,4
4,9,0,0,2,-1,0,12,4
-9,-9,7,1,9,0,12,7,4
-2,-15,-12,0,26,-2,-49,-1,4
4,17,4,-1,-4,0,35,10,4
-2,6,-4,0,-1,0,-12,16,4
-6,-21,-3,0,6,0,-7,15,4
14,29,20,-1,-4,1,18,5,4
1,-1,-3,0,-5,0,-8,5,4
-4,-8,3,-1,14,-4,-56,-6,4
0,11,2,-3,-9,0,-9,24,4
1,-5,-3,-2,-1,2,29,-22,4
-9,-9,-6,0,12,2,5,-11,4
-2,2,3,0,-5,1,7,-15,4
13,5,7,2,3,1,-26,0,4
-2,-1,-4,0,-3,1,16,7,4
1,-6,-2,-2,3,-2,-12,13,4
0,0,-5,-2,3,0,30,-1,4
-2,-8,-2,0,-4,0,-7,15,4
-1,12,6,0,2,3,25,1,4
2,2,-2,0,4,-2,-30,22,4
-2,-7,0,0,-7,-6,-46,14,4
3,1,-2,0,-1,1,-7,8,4
-3,-6,2,-1,0,-2,22,1,4
4,-3,-4,-1,8,0,-33,-30,4
5,6,10,1,-11,2,28,25,4
8,-4,-4,1,-1,11,93,-15,4
-11,0,-2,-4,0,-9,-72,-15,4
-2,1,2,1,-2,4,84,-6,4
-8,-9,-8,-4,-9,-8,-9,15,4
15,13,5,2,-16,4,23,23,4
-17,-17,2,0,-1,0,-14,-36,4
11,-1,-10,-1,-13,2,-1,31,4
-5,20,3,-6,-7,-1,13,-28,4
-8,-15,-3,-2,-3,-1,-30,15,4
4,-9,-3,0,-7,-7,43,36,4
-6,-7,-2,-3,3,-8,-79,-24,4
4,-8,-2,3,4,9,42,24,4
-4,1,-12,-5,-2,-7,-42,-8,4
10,6,5,1,-3,6,22,7,4
-4,-5,1,-1,4,-2,15,-3,4
2,-8,-5,0,-2,-2,-11,-10,4
-5,15,5,0,3,-1,-1,-6,4
-7,-9,-10,-2,9,-2,-19,-36,4
11,35,28,4,6,1,7,14,4
-10,-13,-18,0,4,0,23,18,4
0,2,5,-1,-5,-3,10,-3,4
8,-5,0,-2,-13,-3,-9,27,4
2,7,1,-1,-15,-5,-32,-5,4
-4,-9,4,-1,-7,2,51,6,4
3,1,-6,-1,-7,-2,-2,22,4
7,-15,3,0,-3,-5,-61,-41,4
6,2,-6,0,-26,3,24,22,4
11,18,3,1,-15,4,-24,2,4
-5,-12,-9,-4,15,-8,-20,-12,4
17,1,-2,3,-6,5,21,26,4
-13,2,1,-1,1,-1,4,-3,4
0,-15,8,3,4,2,-7,-71,4
-8,37,17,-1,-1,-6,-35,-10,4
2,5,-1,1,0,5,-1,32,4
-26,-24,1,-5,6,-19,-9,-28,4
8,22,-13,-1,-3,0,-12,-3,4
5,-23,4,4,-1,7,27,-15,4
-6,-2,0,0,1,1,25,9,4
5,-1,-5,0,0,6,21,8,4
-2,-10,15,1,-2,-2,-6,17,4
-3,42,22,-6,29,-9,-26,-44,4
-4,-7,6,1,-3,3,-14,-16,4
2,4,-8,1,17,1,30,-13,4
0,11,-6,-1,8,-5,-14,0,4
-8,-15,1,-1,-9,1,7,-6,4
-2,14,2,-1,5,-5,-4,-35,4
6,5,5,-1,9,1,-43,33,4
0,-12,-7,-1,3,-4,-17,-29,4
13,0,-5,3,-10,7,-17,20,4
4,5,0,-4,2,-7,23,58,4
-2,-13,-7,3,-16,8,26,34,4
-19,8,-8,-9,-10,-11,-51,-4,4
0,-16,-7,-1,6,-2,9,39,4
1,3,-10,-2,7,1,6,9,4
65,-5,13,5,-4,5,-1,38,4
38,23,-10,-5,6,3,35,-55,4
-34,-6,-21,1,-22,2,31,17,4
36,9,2,-1,10,-9,-73,-8,4
19,-6,-3,3,-21,4,21,-50,4
-28,7,12,1,12,-1,15,24,4
-75,-53,-17,-3,0,2,-5,8,4
20,36,4,-5,9,-5,41,8,4
-23,-20,-18,-6,11,-5,-5,-36,4
12,-31,-8,-1,-9,-8,-91,19,4
-54,-12,-28,-3,27,2,37,20,4
-9,-18,-19,-3,-12,4,13,35,4
24,0,3,-3,1,-2,-4,1,4
1,3,0,1,15,5,39,18,4
13,3,8,0,-2,-7,-5,-29,4
-46,-7,2,0,-3,3,-16,-3,4
-17,26,-6,0,-1,-3,5,2,4
-15,-20,-1,0,7,6,3,-10,4
68,15,13,1,-23,5,59,-26,4
-6,12,4,-1,6,-11,-92,2,4
-43,-14,-4,-4,-12,1,77,-41,4
-6,-6,4,-1,5,-6,-48,38,4
15,10,8,0,-7,6,21,12,4
-8,-7,1,2,7,2,1,-1,4
-16,-8,-1,-2,6,-2,13,7,4
8,9,3,0,-10,2,25,3,4
14,-1,-4,2,4,-7,-15,-32,4
1,-2,-3,2,-6,4,18,-21,4
4,0,1,-2,7,-2,-20,16,4
-1,10,10,2,-1,3,50,-1,4
24,-4,-4,0,0,1,-46,10,4
-11,-15,-1,1,-9,0,50,-18,4
-20,-15,-3,-2,22,-3,-27,4,4
-2,-2,-9,-4,5,-2,6,19,4
4,2,0,-1,4,-3,-17,-23,4
-1,-3,3,0,11,2,3,-5,4
-1,-5,-3,2,4,5,1,16,4
-2,-11,-4,0,18,-6,-27,-56,4
-14,21,24,-3,13,-8,9,-17,4
-7,-17,-13,1,-5,1,-9,-17,4
-11,1,3,-5,7,-7,-87,-23,4
2,5,-2,-1,7,2,37,-22,4
-22,-18,-11,-2,-19,-3,-18,-5,4
1,-5,9,2,-3,4,46,-38,4
6,6,27,2,11,-4,-42,31,4
2,-16,0,-1,-19,-1,-6,8,4
34,3,2,0,10,5,16,29,4
-15,6,-9,-3,-6,-5,-73,-21,4
9,-11,-7,-1,-5,0,38,-21,4
-34,-1,2,0,-21,1,17,-6,4
-4,4,1,-1,3,-2,-15,-27,4
12,-1,8,2,-10,5,33,34,4
13,19,1,-2,-9,-3,0,5,4
2,-14,-21,-4,-30,0,6,-10,4
5,-1,-9,0,-8,1,-37,-3,4
4,11,7,-3,12,-6,59,10,4
-8,-1,-11,-1,-9,3,-32,-15,4
9,13,10,3,-4,1,30,17,4
-9,4,-5,-1,-4,0,-43,-7,4
-19,6,-8,-10,12,-10,-50,-74,4
4,-2,0,0,4,4,37,32,4
7,-5,-9,-1,21,-2,-17,9,4
-3,-2,-21,-4,-6,0,27,4,4
0,3,6,2,1,2,15,9,4
-16,-7,-22,-4,-12,-4,4,-33,4
17,7,4,-1,8,2,-23,-10,4
3,-6,11,2,1,-2,2,3,4
-6,-13,-13,-1,-8,2,-2,9,4
12,12,17,-1,3,4,-2,11,4
2,27,12,2,14,-5,-21,55,4
-27,-14,-9,-6,1,-3,14,-4,4
-1,-7,0,1,-2,0,58,25,4
6,-1,-3,4,-3,-1,-22,25,4
11,10,6,2,-3,7,51,-8,4
26,-3,13,0,-5,-5,-10,17,4
9,7,-5,1,-1,2,-11,12,4
-4,-4,0,3,1,-3,23,-20,4
7,14,-11,-3,7,3,5,18,4
-7,-17,-4,-2,8,-8,-27,-6,4
-2,-15,1,-1,-4,5,-5,-3,4
2,10,19,0,0,-2,-8,27,4
-31,-24,-7,-2,13,2,10,14,4
-1,8,1,-2,9,-1,21,-81,4
15,-7,-3,-4,-3,-5,-48,-8,4
-21,-2,-5,-1,5,-3,20,-7,4
4,-5,5,0,6,3,9,-15,4
-7,7,0,0,-8,-3,-48,17,4
10,4,11,2,3,1,14,-15,4
-4,-1,-6,-1,3,-1,3,-29,4
6,-8,-4,-1,-9,-2,-9,3,4
18,9,0,4,0,4,23,21,4
-16,-10,-2,-2,-3,1,18,5,4
0,-3,-4,-1,-2,1,-57,-15,4
-20,-5,-1,-2,4,-8,10,-20,4
7,2,1,0,-13,2,7,20,4
1,-11,1,4,11,2,11,-1,4
14,9,14,0,7,2,9,19,4
-13,-13,-19,-1,-6,-1,-16,-26,4
-9,4,1,-2,-5,0,4,10,4
1,-4,-5,-1,1,1,1,5,4
4,-2,-8,-3,5,-4,6,-9,4
8,9,21,3,-18,0,0,-7,4
-7,11,-6,0,-3,-4,-49,-19,4
8,10,2,2,-9,1,15,27,4
-4,-8,-8,-2,20,-4,-15,33,4
6,-1,4,-2,-18,2,-15,-2,4
13,-3,-3,-1,9,-2,23,3,4
4,4,4,-2,-4,2,-4,-34,4
-12,4,-7,-1,-3,1,17,-33,4
-11,4,0,1,7,1,5,-6,4
26,-3,2,-1,9,1,-22,-2,4
1,7,-2,-1,3,-5,-9,-37,4
-7,-8,5,-2,3,-2,8,-7,4
4,-19,-8,0,21,2,14,5,4
-17,-4,-2,-2,-1,1,33,7,4
-2,19,0,-1,-2,1,-32,3,4
-4,-19,-20,-1,3,1,3,-45,4
-7,13,26,1,-4,-7,-6,10,4
-1,-23,-11,1,-4,3,22,8,4
1,19,6,-2,3,-2,-1,30,4
6,1,0,0,-16,2,-3,20,4
8,3,-6,-2,-17,1,-20,-2,4
-1,-17,-10,0,-12,2,15,8,4
-18,12,6,-2,6,-6,-30,-8,4
-12,10,5,-3,-13,-2,30,4,4
15,1,-4,0,9,1,-5,11,4
-1,3,8,-1,-4,-2,7,29,4
26,-10,-1,2,-7,4,24,38,4
-4,-12,-6,0,9,-3,-55,-8,4
5,18,-3,-2,-6,-1,-2,-12,4
-17,-24,-5,-4,5,-3,8,-10,4
-2,-11,-5,1,-2,4,28,23,4
10,-13,-8,-1,-2,0,13,-36,4
-12,20,3,-4,16,-2,15,12,4
15,16,10,2,4,-5,-62,-12,4
-4,-13,-10,-3,-2,-2,16,-19,4
-1,20,20,-1,7,-2,8,-31,4
1,-5,-1,1,-2,1,1,14,4
-9,8,0,-2,9,-1,22,-22,4
-3,-6,0,0,9,-1,-6,-8,4
9,8,3,2,-8,4,-13,15,4
0,-8,-4,-1,-7,-1,30,7,4
-4,9,2,-2,7,-4,-22,-41,4
-29,-6,0,2,-13,-1,-10,38,4
-22,-4,-5,1,-3,5,20,25,4
-25,-6,-3,-1,1,-3,-45,-31,4
0,-5,-2,-1,-10,-1,22,33,4
1,11,16,0,3,-2,-8,4,4
-6,19,-13,-2,3,2,17,5,4
26,-19,3,1,-5,2,-14,-20,4
-7,11,15,-3,8,-11,-23,-41,4
-6,-8,-18,-2,-17,3,-3,24,4
21,6,9,-3,-1,-1,33,32,4
-2,-13,-3,-1,11,-1,-26,-4,4
-2,9,-2,3,-9,5,28,15,4
23,-5,-4,-2,1,0,1,-18,4
4,-2,-2,-2,5,-7,-53,-8,4
1,-5,-11,-1,-14,-1,34,4,4
0,0,0,0,6,-2,4,16,4
-31,-2,-1,-1,15,-3,-5,-24,4
-4,-44,-15,-4,9,-1,23,-10,4
10,3,12,2,-10,3,9,47,4
17,14,-7,5,-3,3,-63,30,4
-3,-11,-2,2,8,-1,28,-52,4
8,-6,4,2,-7,2,34,18,4
-1,4,-1,-4,7,-4,-28,-78,4
-4,-10,8,-1,1,1,12,-8,4
11,-5,0,-2,0,-1,1,1,4
-2,7,1,1,-6,2,-16,-2,4
8,-5,-6,-2,10,-5,-12,0,4
-8,-11,-8,0,2,1,26,-4,4
7,15,7,-2,13,-7,-68,-10,4
-12,13,14,2,1,3,29,-2,4
-26,2,-5,0,8,-1,-53,17,4
15,-3,-3,-2,-6,1,49,-32,4
0,-2,4,2,-5,0,44,22,4
-4,0,0,-3,2,-6,-83,-10,4
-7,0,-1,1,-8,2,39,41,4
-5,3,0,0,-7,1,4,18,4
21,-3,-4,0,18,-5,-32,-60,4
10,10,16,1,-10,2,21,61,4
11,11,-6,0,0,-1,13,-12,4
-6,-16,-6,-1,15,0,-21,9,4
6,4,-2,-3,-11,1,30,17,4
18,-5,-4,3,9,1,-20,-18,4
-2,3,2,0,-1,1,25,-21,4
-11,-2,-1,-1,7,-6,-29,28,4
-13,3,8,0,-4,3,31,28,4
15,6,-8,-1,-3,2,-11,22,4
1,-2,-9,-3,0,-4,-6,-4,4
5,14,-1,-2,-6,2,-1,-5,4
-7,-3,0,-2,1,-2,20,-24,4
-37,1,6,4,-8,-4,-7,8,4
-8,-11,-14,-2,-14,3,22,-14,4
7,19,2,2,-6,-1,-10,-21,4
-43,-24,-11,-5,-8,-2,-19,-7,4
24,5,-4,-4,-6,1,24,18,4
-4,-4,4,1,0,0,-14,10,4
-10,-6,4,0,-15,-4,-10,-18,4
0,-2,-8,2,-10,1,12,16,4
-12,11,-1,-1,18,0,19,-26,4
22,17,6,-1,-13,-1,3,-19,4
-7,-12,-3,-3,14,-2,14,-66,4
15,3,-2,-1,-1,1,-8,10,4
-5,-16,-10,-1,-3,-1,11,-4,4
-15,6,10,-1,-5,-1,4,-3,4
13,7,-12,3,4,4,-17,30,4
-1,12,5,3,2,1,22,-15,4
-20,-12,18,-3,6,-6,-23,-35,4
-8,0,-15,-6,11,-4,-16,7,4
1,-6,4,2,-8,2,4,3,4
6,-1,-12,-1,-1,0,17,28,4
14,6,-5,-1,3,2,-32,5,4
-32,-10,1,-4,8,-7,-2,11,4
4,4,7,0,-3,4,18,44,4
4,1,-1,-3,7,-5,-31,-37,4
-2,1,-3,2,-8,3,5,15,4
-40,-17,-6,-2,22,-6,-7,9,4
0,-3,-7,-2,-3,4,-2,8,4
11,17,5,0,3,-2,-13,4,4
5,-4,-9,0,-9,-4,5,29,4
14,-13,-5,2,-10,2,9,7,4
4,7,1,-2,5,-4,7,11,4
1,-13,-7,0,-2,-4,-56,-22,4
-20,6,1,0,13,4,31,-2,4
33,6,5,3,-1,0,-30,16,4
-2,-5,-9,0,-10,1,3,5,4
-2,-5,-14,-5,10,-3,30,7,4
-1,7,-11,-1,5,1,10,-25,4
-29,-24,9,-2,7,-4,14,19,4
13,-4,-11,-1,-2,0,8,-13,4
0,6,7,1,-1,2,-18,17,4
22,3,-5,1,-5,-1,20,-7,4
10,5,4,1,6,5,10,-5,4
-24,-2,2,-3,5,-4,-23,-8,4
-2,-3,0,1,10,-1,1,-26,4
-2,-6,2,-3,-3,-5,37,-17,4
31,-15,-3,2,9,-2,-46,-10,4
-12,-4,-1,-2,-4,-1,3,-24,4
-12,16,10,2,-2,-1,0,-11,4
46,5,-2,2,1,1,-17,-9,4
-62,0,-4,-1,9,-4,-46,-43,4
4,-2,0,-5,1,-3,30,32,4
-5,-7,3,-2,-2,0,3,28,4
-17,-2,-2,0,-11,1,-16,-8,4
24,15,5,0,3,4,34,14,4
12,5,5,1,-8,2,2,0,4
-2,7,3,1,-11,-2,4,-14,4
-13,-13,4,-3,14,0,17,8,4
12,9,-1,1,-22,1,5,-32,4
-22,-37,-15,0,1,1,-6,-36,4
9,23,5,-1,8,0,-16,10,4
1,-4,1,-1,-3,1,49,6,4
7,-3,-18,-3,3,-4,-28,11,4
-7,-5,2,-1,-3,-1,7,-17,4
-11,-23,0,1,-3,2,23,14,4
17,6,-9,1,-8,-2,-31,7,4
4,-1,6,-2,-4,2,33,13,4
-29,6,1,0,-2,-3,-14,15,4
34,1,-2,2,-3,2,22,0,4
-22,-5,0,-4,7,-3,-19,17,4
9,-1,1,-1,-3,0,16,-9,4
16,6,2,0,8,-6,-8,-1,4
-14,-1,-1,-1,-9,0,16,11,4
-5,-21,-3,-1,17,-1,16,-21,4
8,4,2,2,-12,4,-6,2,4
1,11,8,-4,-4,0,8,3,4
5,-1,-5,-1,-6,3,-11,4,4
-11,-3,7,-3,-12,-7,10,9,4
7,6,13,2,-8,0,15,2,4
3,-6,-3,3,-12,2,4,-6,4
-9,-11,-15,-3,2,-2,-5,-41,4
6,-14,-12,-2,-4,0,-12,2,4
13,6,8,1,-7,-3,-18,27,4
2,-4,-16,-3,-5,0,-6,-11,4
-1,-8,2,0,-1,1,-3,-2,4
6,11,1,-1,-5,-6,-14,-30,4
8,17,1,3,-11,1,12,21,4
2,-3,-1,2,1,-2,-23,1,4
2,1,-1,-1,-4,1,6,22,4
1,6,2,0,11,-1,-26,-13,4
-8,-13,-12,-3,12,2,29,-15,4
2,8,8,-3,13,-2,-17,-32,4
-10,-6,-2,-2,5,-3,-42,22,4
6,6,-3,-1,9,0,-13,-9,4
5,-2,-4,-3,2,2,40,-12,4
-9,1,15,3,0,0,21,25,4
7,0,-5,-2,9,-6,-33,9,4
-1,6,0,0,-6,1,-2,-15,4
-7,-17,-16,-1,-3,-1,-16,-19,4
11,14,6,0,3,-1,27,22,4
-6,7,9,-1,6,-2,3,15,4
-33,-1,-2,2,-21,4,22,16,4
-4,-8,3,0,-2,-9,-45,-10,4
9,-11,8,1,-2,3,-22,25,4
-14,-5,-8,0,-2,3,30,-5,4
8,6,3,-2,0,-4,-9,5,4
-20,-3,3,-1,11,-4,9,27,4
-1,1,-3,2,-7,6,27,-6,4
1,-4,2,-1,-6,-7,-41,33,4
-7,-15,-15,-1,20,1,-7,16,4
1,10,-1,-1,-5,2,10,10,4
8,4,-5,0,7,-1,-1,-21,4
1,10,4,-2,3,0,20,3,4
1,-2,-13,-2,4,0,-12,-24,4
4,-4,1,-3,0,-1,4,10,4
-2,3,-11,-4,11,-5,-3,-23,4
-1,-5,1,1,-3,4,18,-6,4
4,-8,14,0,1,-6,-20,-1,4
13,25,5,-1,9,1,53,22,4
-3,11,6,-1,-7,-1,-27,29,4
-2,11,0,-3,-4,-3,-10,-21,4
1,-11,-2,0,7,-2,-7,6,4
-7,-11,2,0,1,2,31,12,4
-2,3,-2,-2,-5,0,10,10,4
9,2,14,1,2,-1,13,-6,4
6,13,-7,0,1,2,-1,8,4
-2,0,-2,1,-2,-3,-42,-26,4
9,8,-2,1,6,3,14,12,4
-6,-12,3,0,-3,1,-11,-5,4
3,-4,7,0,8,3,0,13,4
1,-8,8,0,-3,-1,-5,-13,4
-3,-3,-4,-1,5,-3,1,-6,4
4,7,5,2,-6,-1,4,8,4
-3,4,-6,-1,-11,-1,19,-39,4
13,3,-3,-2,8,-2,4,-87,4
-8,-7,0,-1,1,-4,-52,-10,4
2,-5,-4,-1,-2,3,21,-7,4
0,1,6,0,6,0,11,-4,4
6,0,-2,0,-6,3,0,20,4
-8,-8,-2,-1,-7,0,18,2,4
-9,-9,-8,-1,9,-3,-2,-38,4
4,5,1,-1,2,-3,2,11,4
-15,-7,-5,-2,-3,-2,-19,0,4
3,-2,1,0,0,-1,-5,2,4
8,-5,-4,0,2,0,1,7,4
6,29,13,2,-14,4,49,2,4
-1,-3,-8,-1,-7,-2,-33,1,4
-10,-11,5,1,-4,0,-35,1,4
-3,3,-6,-2,-9,-1,-3,-8,4
7,7,1,1,-13,2,14,1,4
-5,-15,-5,-2,-15,-1,-4,-19,4
-11,-4,-5,-4,3,-1,20,-30,4
3,-3,-18,-2,-4,-4,-4,-8,4
1,-15,-9,-4,-11,0,-39,-32,4
7,10,3,-1,-2,3,14,16,4
-3,-5,-2,-1,-6,-2,4,-23,4
-7,-4,4,0,-2,2,50,13,4
-23,-3,-2,-1,-1,-6,-73,17,4
8,3,0,1,1,0,13,6,4
7,4,4,0,-11,3,13,-3,4
1,-2,1,0,-2,-2,6,-1,4
0,-7,1,-1,16,1,33,1,4
-8,16,19,0,-3,-4,-47,4,4
14,18,-4,-1,-2,-2,14,25,4
-6,-3,0,0,-5,0,-11,18,4
17,-3,1,0,0,0,5,38,4
-4,-4,2,2,9,1,3,1,4
-3,4,0,-1,1,1,10,-17,4
9,0,4,0,5,-1,-23,-4,4
-6,1,0,0,17,-2,-20,-26,4
2,-3,-8,-1,-7,4,-11,-7,4
11,-13,3,0,-9,0,-25,-27,4
2,2,-6,-2,24,-3,20,16,4
-8,-5,10,1,-5,-4,-22,-8,4
7,-3,-7,0,5,1,4,19,4
-7,-17,-1,-2,4,1,7,23,4
9,13,3,0,-8,1,1,2,4
-5,5,-2,-2,8,0,-4,16,4
-5,-6,3,0,12,-3,5,2,4
0,9,-6,0,-6,2,42,10,4
7,2,1,-1,0,-5,-63,-4,4
7,-10,-4,0,3,2,34,22,4
-12,-5,0,-3,-8,-1,1,-59,4
-6,-1,-1,-5,22,-6,20,-25,4
-7,-12,-2,2,5,3,-13,-17,4
1,-7,-7,-2,-2,1,49,-6,4
1,3,-1,-2,4,-3,-35,19,4
-2,-7,-6,-2,11,-5,-36,22,4
-4,-12,-5,-1,-9,6,29,5,4
6,9,4,0,0,-1,0,10,4
-3,-14,-7,0,-6,-3,-13,-24,4
-11,5,4,1,-5,-1,-28,34,4
7,-5,-3,-3,-1,3,50,12,4
-4,14,-1,-2,6,-3,-76,-7,4
-2,-16,-2,-3,0,-3,8,33,4
-5,-14,-5,0,-10,1,7,-1,4
-5,3,4,1,4,0,0,2,4
2,-5,-6,0,-4,0,4,-15,4
7,11,2,-2,6,-2,-2,-2,4
-7,0,1,-2,-4,2,9,-4,4
-3,-7,0,1,3,-3,-24,-1,4
-1,4,5,-1,-2,-1,-1,-4,4
-5,3,-2,1,7,1,10,17,4
4,16,12,0,-5,0,-4,-3,4
-6,-15,-16,-2,2,-2,-1,-10,4
0,-9,-4,0,-10,-1,13,5,4
0,7,9,0,-3,1,43,-2,4
-10,-15,-16,1,1,-5,-2,-20,4
9,31,15,1,-6,2,3,-8,4
-22,-9,-8,-3,-2,0,7,-19,4
3,1,-2,-1,1,3,20,6,4
3,-4,3,3,1,-3,-4,-7,4
5,-6,-7,-3,3,-3,-14,20,4
-12,4,-5,-3,0,0,35,-12,4
4,2,9,3,4,-2,-19,12,4
-9,2,-9,-3,16,0,6,-43,4
-7,-1,3,2,0,-5,-68,21,4
13,3,1,0,7,-1,8,-4,4
-7,-5,-5,-1,7,-2,-9,-36,4
7,6,2,1,-3,-1,13,16,4
-4,-12,-2,-1,-2,0,15,-17,4
2,-9,-5,-1,5,-1,-17,10,4
6,3,-1,-1,-3,-2,15,27,4
4,-6,2,-2,8,-1,-4,0,4
-2,3,-2,0,-2,0,5,-22,4
-13,10,-6,-2,-5,-4,-1,7,4
-5,-14,-35,-4,2,1,-14,-6,4
4,-16,-8,0,-16,-1,-3,33,4
-10,9,7,-3,5,-1,11,-13,4
2,6,8,-3,-2,2,13,11,4
30,8,6,1,-6,-3,-58,-39,4
2,-2,-1,3,-12,4,2,18,4
2,0,-2,-1,-13,-4,-15,30,4
2,-9,-1,-3,-7,-1,23,10,4
-11,-1,-1,-1,3,-2,-28,-24,4
3,6,2,-1,4,2,-8,-8,4
5,-2,2,1,-1,1,16,-11,4
6,0,4,2,3,1,-7,-12,4
0,-1,-1,0,-2,-1,1,22,4
5,11,13,3,4,4,39,25,4
9,2,-2,-1,7,-1,-14,-22,4
-3,-7,-3,1,2,0,-21,-7,4
-4,-1,-2,-1,-1,-1,-18,-10,4
3,10,19,1,-5,-1,7,8,4
-6,0,-4,0,10,1,3,-17,4
21,10,11,0,-3,-1,-6,-7,4
5,6,-3,0,8,1,38,19,4
-12,5,10,-2,2,-5,-23,-12,4
-1,-9,-5,-1,-1,0,-3,-9,4
3,-5,-4,-3,9,-3,-38,-18,4
-12,-7,0,0,-4,3,41,26,4
-1,13,-5,-3,-9,-2,-18,-4,4
-2,11,2,-3,10,-3,33,52,4
-22,-6,-4,0,4,2,32,-39,4
-4,1,3,-2,-12,-6,-35,14,4
-1,-11,-11,-1,4,0,19,5,4
-3,-10,8,2,0,2,21,-1,4
5,11,8,-2,-5,-1,15,23,4
0,0,0,0,-1,3,25,20,4
-21,-11,-10,0,1,-4,-40,-15,4
6,0,3,0,0,3,20,3,4
5,-12,-3,2,-1,1,10,9,4
-5,-2,-13,-2,-7,-1,-1,8,4
3,0,-6,-3,9,-4,-42,-40,4
-19,-19,-6,-1,3,0,-20,-3,4
11,-4,-3,1,5,-1,3,-5,4
-1,6,9,1,-5,3,10,3,4
3,-9,-20,-2,1,3,38,21,4
3,-3,-6,1,5,-4,-39,-7,4
-6,-3,-1,-1,-1,-1,-6,3,4
1,-1,2,-1,0,-3,19,12,4
7,4,4,0,3,1,-1,4,4
0,3,0,-1,-5,2,37,-19,4
-2,-14,-19,-2,1,0,-47,17,4
4,15,10,-2,12,-3,22,1,4
-3,6,-9,-2,-5,-2,-11,17,4
1,1,-9,-3,-2,-2,-37,16,4
2,-1,2,2,-2,2,7,12,4
-4,-2,2,-4,2,-3,-5,-23,4
6,-1,5,2,4,1,27,4,4
3,2,0,-2,2,0,-5,10,4
-13,-22,-27,-6,-2,-5,-15,17,4
4,-2,-2,0,-2,4,27,12,4
26,12,4,-1,2,-8,-54,-3,4
0,-7,-7,-3,11,-1,31,-13,4
3,4,7,1,-4,2,8,10,4
-4,-2,-1,0,7,-1,-5,-5,4
-15,-8,7,-1,14,-4,-7,-24,4
-1,10,-13,1,-12,2,11,28,4
3,13,3,0,-3,-1,-20,11,4
-9,-33,-5,-1,-4,0,9,-2,4
4,19,15,1,1,3,29,7,4
2,2,5,-1,5,-1,-27,-12,4
-4,2,4,-1,14,-2,12,-8,4
-4,1,-5,0,-3,1,-33,17,4
-15,-15,-10,-1,3,0,7,-24,4
0,-4,0,1,2,-2,23,-5,4
3,9,3,-1,-3,1,4,-8,4
7,3,3,0,2,3,-5,-19,4
5,-2,6,-1,9,1,14,4,4
-8,11,-3,1,-3,1,-24,-3,4
-12,-9,3,-2,-9,-2,7,3,4
-2,1,1,-1,-2,-3,4,-16,4
2,-7,-1,-1,-11,3,-4,3,4
3,4,1,-2,1,-4,-21,-41,4
-2,-2,10,3,-3,-2,-1,-10,4
2,2,0,0,-6,1,18,-26,4
-8,-2,-1,-1,-10,1,-5,-18,4
2,-11,-13,-4,4,-5,-7,22,4
4,-1,-2,-2,-7,-1,-7,-13,4
-10,20,-5,0,-10,-3,-20,4,4
9,-15,-19,-4,8,-3,-43,1,4
5,0,8,0,-5,5,13,-9,4
-1,2,-1,0,0,2,27,-12,4
-18,-4,-9,-4,13,-9,-57,-57,4
0,5,2,-1,0,-1,14,19,4
2,-2,3,-2,1,-1,14,-21,4
2,-4,-7,0,0,0,-20,17,4
13,13,18,3,-9,2,23,37,4
-8,11,-2,-2,6,-3,-2,-26,4
-2,-14,5,-1,-1,-1,19,3,4
-1,3,2,0,4,-3,-27,-1,4
4,-3,3,-1,4,3,-3,2,4
-8,-6,2,-1,-3,-1,-61,-19,4
-16,-4,-9,-3,-6,2,34,26,4
12,9,-4,1,-1,-3,-15,-48,4
0,-28,-7,2,-2,-1,33,0,4
-12,6,1,0,3,2,22,9,4
-2,-2,5,0,3,0,-25,6,4
0,-9,13,0,-7,3,24,18,4
4,11,9,-1,8,0,-5,-27,4
2,9,-3,-1,3,-1,10,-10,4
3,-4,5,1,-16,-4,26,29,4
5,0,-1,0,4,-2,-33,-3,4
7,2,0,1,-3,3,10,-5,4
-11,-5,0,-2,-1,-5,-14,35,4
4,-4,-3,1,9,1,23,-18,4
-16,14,3,-3,7,-1,-14,-13,4
0,-5,-4,0,-5,1,4,37,4
10,11,-6,0,3,1,27,-41,4
-11,-13,-5,-2,2,-5,-32,-40,4
-3,-1,-1,0,1,-2,6,18,4
9,-4,-5,-2,2,3,11,-12,4
15,2,7,1,-1,0,11,32,4
1,10,2,-1,-4,-2,-9,-28,4
-2,-1,-10,0,7,-4,-27,-24,4
-2,11,4,-2,0,0,-5,4,4
3,-19,-3,-3,-9,-3,19,9,4
8,14,9,1,4,2,-13,22,4
-11,5,0,-1,0,3,35,-7,4
4,4,7,1,-5,-3,-14,-3,4
-2,-2,-2,0,3,0,-5,-12,4
15,6,3,2,3,7,50,43,4
7,-5,-1,-4,-1,-5,-53,26,4
-24,6,-1,-1,-2,-3,13,-29,4
-6,-12,-3,-3,4,-5,-27,-4,4
-3,1,2,-1,1,2,15,54,4
10,-3,-2,1,-1,4,40,5,4
-7,-35,-7,-4,7,-1,8,7,4
3,18,4,-1,-3,1,-4,21,4
-9,-4,-11,-1,0,-2,-27,-21,4
-22,-9,-3,-1,-2,0,16,32,4
9,5,-2,0,11,-1,-24,-23,4
1,-4,1,2,1,1,29,-2,4
-1,-5,-2,0,3,-4,-48,-21,4
9,5,2,0,5,0,22,3,4
2,0,-3,-3,-7,-2,11,34,4
-2,1,0,2,-2,4,27,19,4
-8,-1,-2,0,9,-9,-58,-87,4
4,-16,-6,-2,3,-2,-41,-18,4
-8,-7,-14,-1,10,1,1,14,4
-9,-22,3,-1,8,0,22,10,4
-9,-6,-25,-3,-6,4,15,24,4
8,-1,-1,-1,2,1,-6,-21,4
3,-10,-2,-1,-6,0,-8,-23,4
-4,22,8,0,1,-2,-14,-13,4
2,-1,-6,0,-14,-3,-2,14,4
7,0,-8,0,-9,0,13,13,4
2,9,3,1,-2,0,1,13,4
12,-3,-5,1,-11,3,8,-7,4
2,5,8,-2,-3,-2,42,1,4
0,9,4,-1,-14,-1,3,14,4
-3,5,3,2,-1,-4,-44,-68,4
-1,-1,-2,0,-1,-3,-26,2,4
-2,-4,4,-3,-1,1,3,-30,4
3,-2,-2,-1,-4,2,35,6,4
-16,-10,-1,-2,-7,-1,6,-3,4
5,-10,-6,-1,-5,-4,0,16,4
-5,6,4,0,2,-3,-18,-34,4
-1,4,4,3,7,2,1,-29,4
11,11,-5,-2,-6,-1,-2,4,4
-14,-6,-2,0,1,0,-1,2,4
25,7,8,-1,10,0,-14,-4,4
19,-3,-16,0,-6,4,41,-8,4
-5,5,3,-3,7,-6,-37,-46,4
-2,-10,-6,-3,0,-1,-2,-14,4
-7,-33,-11,-1,10,-3,8,22,4
1,4,5,-1,-2,-3,-20,13,4
10,9,3,1,8,4,35,44,4
3,-10,0,0,2,2,30,11,4
-8,3,11,0,9,-5,-48,-39,4
-10,-1,-13,-4,7,-4,0,3,4
15,-2,-2,0,4,-1,18,10,4
-8,3,8,0,-2,-1,-17,-24,4
6,9,4,1,1,2,17,39,4
-9,-8,7,0,-5,1,-3,-4,4
2,3,-3,2,0,2,-3,21,4
5,14,5,0,1,3,34,50,4
8,-4,1,-2,-3,-7,-74,-16,4
-3,-8,3,-1,4,0,14,16,4
16,-1,-4,-2,3,1,-27,-3,4
5,4,4,-1,5,-3,-11,29,4
-19,11,-3,-1,-11,3,31,0,4
-2,-13,9,0,6,0,10,-33,4
-16,-9,-8,-3,0,-2,6,11,4
0,2,-4,0,-1,-3,-48,-28,4
-3,9,6,1,0,6,34,21,4
-3,1,1,-1,4,-3,-23,6,4
1,5,5,1,-13,2,40,47,4
-31,-27,-15,-6,11,-8,-21,-53,4
2,12,6,1,0,1,-2,25,4
4,12,-3,-1,-5,1,4,15,4
25,5,1,1,7,4,1,7,4
-5,-6,12,0,-2,-3,3,32,4
3,-3,-3,0,-6,0,15,32,4
-2,2,0,-2,-14,2,-32,52,4
-6,-15,-16,-2,5,-5,8,-8,4
6,22,8,2,4,4,42,30,4
6,9,-13,-1,-9,2,-2,9,4
6,-1,-4,-1,0,-5,-21,-16,4
-19,-5,4,-1,-2,1,10,23,4
16,-7,-11,-1,-10,-2,-40,-23,4
-1,-3,3,-1,4,1,30,9,4
-1,-1,-2,2,-3,4,2,-8,4
5,5,5,-1,3,-5,-27,-41,4
-25,-7,-2,-2,-3,-4,-11,-18,4
13,3,-4,0,4,-3,6,18,4
3,2,3,-1,0,0,-27,-46,4
-15,-5,18,2,-7,-1,-1,-34,4
-1,-13,3,1,10,6,33,-7,4
-13,7,1,-5,-5,-7,-39,8,4
5,-4,-2,0,-8,4,46,40,4
-40,-20,-5,2,-8,3,-6,22,4
46,35,27,4,-4,6,36,4,4
23,0,0,-1,6,-2,-22,-23,4
6,1,5,0,-2,0,10,-7,4
6,11,-2,-2,-1,0,16,21,4
-31,-11,17,-3,-8,-8,-49,8,4
-17,-13,-12,-2,4,1,24,21,4
-27,-4,-2,-3,8,-4,-5,-55,4
-3,18,-2,2,-10,-1,18,22,4
20,2,-9,-1,-4,-2,-12,-27,4
2,-3,10,4,-2,2,1,-35,4
-20,-2,-1,0,-6,-1,-22,-37,4
-21,-2,-17,-5,-6,-3,17,-27,4
-3,9,-9,-4,16,-1,21,-34,4
-10,-11,-4,0,-13,3,28,-7,4
5,1,0,0,-2,-6,-68,20,4
17,1,6,0,-1,-3,-13,-7,4
10,2,-10,1,-23,0,-1,57,4
5,-5,-2,0,-6,2,25,-2,4
7,11,6,0,0,2,61,17,4
-22,-7,-2,-8,-5,-9,-66,11,4
-2,-14,-7,0,0,2,-9,4,4
11,6,4,3,-7,8,64,32,4
2,3,1,-4,10,-9,-82,29,4
-9,-18,-11,-6,-5,-4,33,-22,4
24,-27,8,8,4,13,53,54,4
-53,-38,-25,-15,21,-14,-61,-70,4
5,-11,-6,-2,-1,1,36,-31,4
18,16,-13,-1,16,-4,4,2,4
0,23,13,-2,3,0,-6,-17,4
-16,-34,-17,0,14,-3,-55,-27,4
8,-4,14,-6,3,1,12,-70,4
-37,-5,-13,4,14,3,13,-16,4
-7,3,-9,-1,8,-4,-63,-11,4
17,28,13,5,-8,5,26,16,4
-11,8,5,-3,-12,-7,-3,-5,4
2,-3,10,5,-5,9,18,-40,4
-5,10,-5,-3,12,-8,18,-30,4
11,13,11,2,-18,3,-6,1,4
7,-11,-14,2,-6,0,-8,32,4
12,6,12,1,-11,6,16,31,4
0,-2,-10,0,7,1,-7,41,4
5,5,4,1,-13,4,46,41,4
7,-6,-9,-1,11,-9,-64,-20,4
21,-2,3,3,-5,1,24,20,4
4,7,2,3,-4,9,57,-9,4
14,0,-3,-5,1,-10,-13,-17,4
8,5,2,1,-4,3,73,61,4
-12,3,9,1,6,5,-24,-15,4
1,-15,-15,-6,-9,-13,-93,-11,4
18,-2,-7,0,-2,3,1,-20,4
1,-5,-4,1,-13,2,15,28,4
36,3,-3,-2,8,-2,2,-24,4
-27,-15,-14,-4,2,0,25,25,4
-34,-3,17,1,-3,-3,-21,-1,4
3,17,12,3,3,0,14,-3,4
-4,-3,-4,-2,12,-6,-22,4,4
-17,-3,2,0,2,0,-2,-37,4
-4,5,-11,-5,-5,-5,20,4,4
-5,-7,-8,-1,7,4,-1,3,4
-8,-6,4,-2,-5,-9,-58,10,4
2,8,6,2,5,-1,2,-5,4
9,9,-3,-2,-16,2,-2,-17,4
-11,-38,-45,-5,16,-3,6,-45,4
-2,-30,-14,-2,2,0,26,27,4
1,-9,-3,-1,3,0,10,-19,4
-26,13,15,1,4,-8,-37,-10,4
-2,5,0,4,-10,10,35,6,4
1,4,8,-2,-5,0,-17,25,4
1,-2,-9,-1,-15,1,75,12,4
-7,-13,-4,-1,16,-2,-66,-17,4
0,14,14,3,-20,4,28,43,4
7,3,6,2,7,-3,-45,-13,4
-8,8,5,0,1,1,15,-5,4
-5,-4,-7,-1,-1,3,111,10,4
-22,-2,3,-4,12,-15,-112,32,4
13,-7,-27,-2,-10,-2,13,-28,4
-4,-2,-19,-2,-19,3,26,-21,4
6,-36,-24,-4,6,1,-17,-8,4
0,5,0,0,-9,0,19,-58,4
-28,7,4,-4,-9,-1,28,-2,4
-26,-2,-4,-2,9,-5,-61,-11,4
28,0,5,5,-16,6,18,23,4
4,16,4,0,-10,2,33,9,4
9,2,8,1,-3,0,-24,0,4
-15,1,13,0,-13,0,23,9,4
-17,5,2,-1,-5,1,-19,-19,4
14,-2,6,-1,10,2,10,37,4
-8,9,7,0,5,-5,-28,-76,4
8,2,2,-2,-10,0,15,12,4
4,19,1,-1,-9,-3,-14,-23,4
-23,-50,-5,-2,-4,-6,-2,16,4
12,11,3,0,1,5,15,-19,4
18,10,-6,-3,-11,-2,28,29,4
4,5,7,0,2,0,-11,-34,4
-2,-6,-14,-1,4,3,21,-26,4
3,10,17,2,-2,0,3,22,4
-1,-12,5,-1,9,-8,-109,-15,4
10,7,1,1,-8,3,43,54,4
8,17,9,1,1,3,-2,-22,4
-8,-22,-14,-4,4,-4,30,-2,4
26,17,3,1,6,3,2,33,4
46,5,-6,-2,1,-8,-15,-10,4
6,5,-2,-2,0,5,18,-5,4
-6,13,11,2,3,2,1,27,4
9,-14,-8,0,3,0,15,1,4
-13,-14,-17,-2,1,-5,-23,-1,4
-7,7,14,1,1,0,-2,13,4
11,1,-5,1,-13,-5,-36,1,4
-36,-3,-3,-1,23,3,11,-5,4
-6,-1,11,3,11,2,-4,-44,4
5,6,-2,0,-9,3,19,14,4
-18,-7,-1,1,3,0,-64,16,4
-6,-21,-4,-2,0,-6,26,-2,4
-23,7,3,-2,13,-4,15,16,4
31,6,2,3,-3,3,-7,20,4
7,-7,2,-1,11,0,36,-16,4
13,6,1,-1,2,1,-5,-9,4
5,2,2,1,4,2,8,39,4
27,-2,-2,0,7,-3,-11,-9,4
1,8,2,-2,4,-1,-16,7,4
-3,-7,-6,-3,4,-6,-42,-60,4
2,7,7,-1,16,2,-4,37,4
-10,4,-1,-1,3,-3,2,-15,4
-5,-39,4,1,-6,3,59,20,4
40,34,14,0,0,-1,-29,-1,4
-23,-7,11,3,-5,3,-42,-84,4
-7,1,-10,-5,12,-5,26,15,4
1,17,3,0,-3,1,-8,10,4
14,-8,-1,0,-8,-3,8,9,4
8,13,7,1,2,4,17,-5,4
15,-2,10,1,-17,-1,-25,10,4
-35,-7,-16,-2,-2,-5,10,-3,4
-10,-4,-1,1,-3,6,49,18,4
39,13,-8,-4,-1,-5,-78,-29,4
-16,-1,7,1,0,-3,10,-21,4
-13,-2,0,-2,4,4,3,-3,4
2,-2,0,1,-2,0,20,-15,4
-13,-6,4,1,-1,-7,-36,-21,4
-24,-10,-9,-4,-2,-4,22,-7,4
28,9,5,2,0,9,17,8,4
-3,5,-3,0,-15,-5,-22,1,4
2,-5,-5,-3,-2,3,90,15,4
-10,-5,-7,-3,10,-9,-116,-48,4
25,9,-15,0,-15,7,49,52,4
-5,-10,11,-3,-6,-7,-12,-60,4
-40,-2,-3,0,3,0,27,63,4
2,6,-2,0,-8,6,52,-8,4
17,-4,1,-3,-4,-4,-18,25,4
-63,-16,-4,-3,10,-3,-9,12,4
4,-1,2,-3,2,2,-5,5,4
-1,9,7,4,-4,7,88,30,4
-12,-15,-6,-3,20,-13,-103,-81,4
-24,12,-1,0,13,7,88,-22,4
-11,-5,3,-3,10,-6,-34,-11,4
13,5,-6,1,-4,2,2,37,4
-39,-12,-3,1,-9,0,10,-25,4
2,24,6,-1,2,5,-11,21,4
-44,-2,2,2,3,-3,9,21,4
34,3,4,0,0,1,-28,4,4
-3,9,2,3,-6,4,35,26,4
-28,-15,-10,-6,1,-6,-51,-41,4
19,2,-4,3,-8,1,10,46,4
-105,-14,-11,-4,-5,-1,12,43,4
-1,0,-7,-3,6,-8,-34,-33,4
49,-11,-14,5,-8,7,21,56,4
0,-15,-8,-4,-4,-6,-21,-101,4
5,1,-6,0,-3,2,21,-9,4
2,11,9,-5,-8,-4,32,-26,4
18,2,-9,-2,11,-7,-50,-12,4
-5,-9,-4,-4,-7,-3,-6,24,4
19,3,6,4,-3,6,-16,-3,4
57,-2,-1,-2,-15,-8,2,7,4
11,0,7,2,3,3,1,-37,4
27,9,4,2,1,0,-25,36,4
6,-21,-14,-4,3,-2,-4,-11,4
-44,-6,-2,-2,1,6,30,45,4
23,5,2,1,9,-4,-13,10,4
6,-6,-4,-3,2,1,20,-19,4
8,6,6,-2,2,-3,-36,-4,4
-38,1,1,-2,13,2,-12,-9,4
29,6,23,4,1,1,21,18,4
28,5,-16,-2,6,5,42,-9,4
-2,-13,-5,2,-3,-6,-28,-7,4
13,10,8,-3,-1,-2,16,29,4
7,1,7,3,-25,3,7,-15,4
-5,-8,16,4,-4,-2,-68,6,4
5,-11,-12,-7,6,-9,47,-15,4
44,2,1,4,-3,8,26,18,4
-10,6,3,-2,-16,-5,-33,-10,4
5,-3,-6,3,-6,5,33,65,4
3,7,0,-3,-5,-1,29,-12,4
-22,-39,-1,-1,-12,-5,-51,-7,4
-3,19,20,3,-5,8,26,-2,4
26,-3,-10,-5,5,-6,-21,-45,4
-2,5,11,-3,-9,-5,-8,-15,4
-11,7,-1,-5,10,-7,-13,-28,4
4,-12,-7,-2,7,0,-4,17,4
-3,-3,0,-2,-1,-2,31,10,4
1,7,10,4,1,7,14,-1,4
-52,13,-4,1,11,4,-7,18,4
63,-44,-19,-3,-9,-4,-19,41,4
-25,12,2,-1,3,-2,-4,-4,4
11,5,-5,0,5,6,17,10,4
4,-2,-6,1,-9,-5,2,12,4
-30,-7,-7,-4,5,-1,23,10,4
-7,12,7,0,0,0,-7,0,4
-45,-9,0,-4,13,-7,-32,-90,4
100,4,-6,5,-12,2,-21,-36,4
-33,6,-14,-5,12,-4,6,-39,4
11,-6,4,0,-15,4,52,15,4
-6,12,-11,-3,2,-6,-68,21,4
-30,-1,-4,0,4,6,17,2,4
47,8,0,0,-14,3,13,31,4
15,-1,10,4,-1,0,-3,-11,4
31,0,3,-2,-4,-2,-1,-5,4
3,6,7,-1,1,0,4,-12,4
-16,3,-1,1,6,-1,-10,56,4
14,4,7,2,-5,2,4,63,4
1,-5,-5,-3,-2,-2,-2,2,4
22,12,10,0,-2,3,31,8,4
-5,-20,-8,-6,11,-6,-40,-20,4
-22,2,-8,-3,-8,-4,8,13,4
-16,-11,7,0,2,-6,-2,0,4
12,5,1,-1,-8,6,41,35,4
-23,-2,-5,-2,13,-2,-10,9,4
-7,-5,-6,-2,3,4,-7,-10,4
4,1,0,2,1,0,0,3,4
-6,-3,-4,-3,9,2,12,4,4
-21,7,0,1,12,-1,15,-27,4
-23,-13,-12,-4,20,-8,-24,-53,4
-5,20,9,1,11,5,-8,13,4
-52,-15,-18,-3,1,-2,-1,-2,4
-19,8,2,1,-5,5,38,9,4
-1,4,-2,-1,1,-2,-49,-28,4
63,0,3,1,-16,2,-7,-1,4
-12,2,6,0,-1,-3,7,28,4
14,-16,-6,-1,-10,3,1,-36,4
59,12,18,4,-9,1,39,27,4
-28,-22,-30,-2,-15,0,-12,-18,4
24,-14,6,-4,3,-2,24,6,4
6,4,-3,0,-5,-2,-47,-36,4
-25,-11,-8,-4,-7,-2,33,25,4
-25,7,4,1,8,5,8,2,4
21,1,3,5,-1,2,-24,4,4
-10,-3,-3,-2,6,-4,-7,-27,4
-23,-3,-8,-4,9,-5,-21,-7,4
-1,6,5,1,-3,4,44,-12,4
-10,2,-5,-2,8,-9,-51,-50,4
-7,2,5,0,-4,2,15,33,4
-31,-1,0,1,1,3,-6,27,4
67,0,-4,-1,-4,-2,5,-23,4
11,23,2,0,-4,-4,-21,-50,4
-18,-12,5,2,-1,4,43,-3,4
-24,7,-14,-4,-7,-5,-12,0,4
-1,4,6,-1,-1,-2,15,31,4
-24,10,-1,-1,-1,1,6,7,4
0,9,-2,0,-2,-6,0,-10,4
11,9,5,1,-5,3,16,-15,4
-6,-21,-13,-2,-8,-5,-29,26,4
10,24,9,-2,7,1,41,24,4
-1,9,-1,-3,-16,-6,-17,-8,4
12,-11,-2,-2,-1,1,5,4,4
-18,9,6,-1,9,-4,-48,-30,4
-2,-22,-2,0,-9,0,11,2,4
-11,3,4,0,2,3,-2,29,4
5,7,4,3,-1,-3,8,19,4
0,-5,2,1,0,1,23,-19,4
-1,-11,10,-1,1,-10,-82,-2,4
28,-2,-9,-2,-5,4,24,-11,4
10,-5,-10,-1,-3,-1,-47,1,4
-26,6,14,1,10,-2,17,-7,4
-15,-4,-10,0,9,0,28,-6,4
-12,2,0,-2,3,-1,-17,5,4
61,13,5,0,6,1,8,-55,4
0,3,-13,-2,-10,2,9,15,4
-19,-2,4,-5,16,-1,17,-9,4
9,1,8,2,2,-3,-75,15,4
-11,3,-4,0,-4,4,60,65,4
-7,-3,6,-1,2,-1,-13,5,4
24,-3,-4,3,-7,3,18,-7,4
-13,2,-3,0,3,2,14,9,4
-16,-17,7,-2,7,-2,-27,-75,4
15,17,6,0,9,2,-5,55,4
-7,-13,-3,-2,-15,-1,-20,5,4
-10,1,0,-1,15,-2,21,-19,4
0,-6,-7,-4,6,-5,-49,-50,4
-7,-10,-4,0,-3,-1,12,-1,4
4,1,0,2,22,-2,6,-39,4
-1,9,-5,1,-3,0,24,-7,4
15,-4,-2,-1,0,-5,-60,-5,4
-15,3,-1,-1,3,-2,25,-44,4
5,-9,-11,-1,-3,4,-31,6,4
1,3,1,-2,-4,-2,13,8,4
-4,10,-2,2,4,6,51,23,4
3,-4,-1,0,3,-1,-13,-5,4
15,8,-1,1,-13,3,24,6,4
-46,-24,-5,-6,4,-7,-1,23,4
-10,-6,-3,1,-2,2,5,43,4
-20,3,5,-2,5,-3,-4,-1,4
8,-1,13,3,1,0,11,24,4
1,6,-6,0,2,0,-3,31,4
-1,-7,-1,0,2,0,8,-8,4
3,-1,0,-1,8,-2,-9,-7,4
-14,-6,-1,-3,-3,-1,9,23,4
6,-1,-2,-1,-2,-1,-11,10,4
-14,0,-3,-2,4,0,1,-14,4
30,0,0,0,-6,2,5,24,4
-1,-1,-3,-3,-14,-1,-4,3,4
5,3,1,0,-9,4,14,23,4
1,13,-2,-1,-15,0,5,-14,4
9,-20,-6,0,-11,-3,-34,-43,4
-7,15,4,-1,3,-1,7,2,4
-2,-22,6,2,2,-2,-37,-36,4
-22,6,-9,-4,-4,-1,77,-10,4
-2,-11,-12,-2,0,0,7,24,4
-4,-13,-8,-3,-11,-5,-42,-4,4
28,5,2,1,-9,3,10,-26,4
-10,-6,8,5,14,0,-24,-42,4
-11,2,3,-3,-5,-1,-4,-11,4
-22,-10,-6,-2,3,-2,-5,5,4
-3,4,-4,-1,17,-3,-59,-27,4
-11,-11,0,-2,-6,-4,16,-9,4
-47,4,4,0,5,3,-11,12,4
-5,-6,-8,-3,4,1,18,7,4
-2,4,-3,-2,5,-6,-12,-32,4
3,-7,-1,0,-7,-2,-8,25,4
13,11,6,3,6,0,27,-5,4
23,4,1,-1,-10,2,12,-25,4
22,5,1,-1,-5,-7,9,27,4
3,-9,-4,-1,-2,0,-35,-9,4
3,-30,-4,-1,-6,1,14,28,4
-5,23,10,-1,-6,0,-2,-45,4
-9,-14,-25,-2,15,2,50,-14,4
-6,10,4,0,2,-5,-31,12,4
0,-4,-2,-2,-1,-2,-5,4,4
-1,-7,-2,1,4,-3,-6,5,4
12,2,6,-2,-9,5,-1,-13,4
-14,-5,0,0,6,-1,27,-22,4
-41,27,-2,-4,13,-8,-29,16,4
-7,-11,-1,-1,8,1,-9,28,4
-5,-14,-2,-1,-12,3,59,17,4
18,-6,-4,1,-2,1,-38,42,4
31,5,8,2,5,2,20,-16,4
-19,0,-3,-2,3,-3,-8,10,4
4,10,5,4,-10,3,22,1,4
1,-5,-6,-3,10,-2,-14,21,4
-4,3,-4,-1,-9,1,-3,-18,4
9,-3,0,1,14,0,-15,22,4
7,-1,0,0,1,1,-10,50,4
-6,-9,2,-4,-4,0,17,-35,4
14,9,3,1,-3,2,0,22,4
-2,18,8,0,13,-2,12,-1,4
31,3,2,-1,-3,0,-13,-12,4
-10,6,17,3,-3,5,38,41,4
3,1,8,1,5,1,-27,14,4
12,-11,-7,-1,-12,4,-23,-59,4
-20,3,1,-1,6,0,22,54,4
5,12,4,-1,8,-1,-28,-14,4
9,4,0,-3,2,-5,-31,-25,4
3,-35,-14,-2,7,-1,18,3,4
-17,10,-2,0,6,2,-10,-7,4
56,3,-4,-1,-10,0,5,11,4
-1,3,-1,2,6,1,25,-46,4
2,-4,-2,-2,-9,0,-7,0,4
-4,-12,-1,0,4,0,-27,-6,4
-15,0,-6,-4,0,-2,24,-8,4
-43,-14,-3,-1,-8,2,8,5,4
18,9,3,-3,12,-5,2,-3,4
34,-8,-12,-2,1,0,40,-25,4
-6,11,10,-3,6,-11,-103,-36,4
-10,-5,-9,-2,3,-6,10,4,4
-7,7,1,3,-4,4,32,22,4
-18,3,5,0,-3,-4,0,-2,4
-14,-2,-2,1,6,3,22,-22,4
28,-3,-6,-3,-7,2,3,49,4
-5,9,5,-2,-11,-4,-40,5,4
-6,-23,-1,-2,9,-2,40,-41,4
-3,-2,-5,0,-1,-2,-46,12,4
-6,6,7,-1,-6,-2,28,2,4
0,-16,-3,1,-21,1,-23,-15,4
-9,19,8,-2,1,0,-18,-17,4
-24,10,-7,-5,-2,1,63,-16,4
40,-18,-1,-1,-3,5,-12,-1,4
-4,1,-1,-2,-15,1,22,-23,4
0,-1,-2,0,-9,-7,-37,1,4
-37,-11,5,1,2,1,22,53,4
-10,9,0,2,-3,0,-7,-8,4
-17,1,-2,-2,-10,4,31,25,4
54,3,0,1,-4,-1,-42,-6,4
-1,5,-1,-1,-8,-2,7,18,4
-20,-4,-4,-2,-9,-7,4,-37,4
-4,-2,-3,1,8,5,10,3,4
-27,6,5,0,-6,0,-12,19,4
12,-6,-4,0,-2,2,-25,-29,4
-6,-10,-12,-1,1,-9,3,15,4
15,13,6,-1,15,1,9,-8,4
-12,-4,-4,1,-5,2,3,32,4
-1,-21,-18,-1,0,3,18,-3,4
12,3,-7,-1,2,1,8,4,4
15,6,2,-1,4,-7,-46,-16,4
-12,-11,-16,-4,9,1,13,21,4
-7,2,-5,0,5,2,2,-14,4
-62,-6,5,-1,-3,3,31,26,4
-2,-1,-6,-1,10,-1,-32,19,4
-12,-8,3,-1,-6,-5,-54,-41,4
22,5,4,1,3,3,29,22,4
1,5,0,-1,2,2,-7,28,4
-5,-1,4,1,7,1,29,-17,4
-22,-4,-5,-2,-2,-1,-8,-19,4
-6,0,1,-1,3,-8,-23,8,4
15,2,1,3,0,1,-19,-1,4
9,-3,1,1,0,-4,14,-5,4
11,15,14,1,2,3,4,26,4
7,8,-1,0,-3,-3,6,22,4
14,-27,-2,-4,10,0,3,-60,4
-11,0,-2,-1,2,-1,20,15,4
-1,2,-2,-2,11,-1,-31,-15,4
10,-5,3,2,-3,4,14,25,4
43,7,1,1,-1,-2,-4,12,4
-7,10,-11,-1,0,1,16,-1,4
-24,-19,9,-2,12,-4,-16,6,4
9,1,4,3,-6,7,30,18,4
29,13,0,-1,18,-1,-22,-56,4
36,-7,-5,-1,-10,-3,-53,-8,4
5,3,-2,1,-4,3,40,7,4
-25,-6,-3,-5,-1,-7,-32,-45,4
-24,2,1,0,10,2,22,-4,4
-14,-2,4,-3,-6,1,25,-14,4
5,5,-2,2,-7,2,-33,-35,4
4,-3,0,-2,0,-4,6,-7,4
-7,4,0,2,-5,-1,-9,9,4
-14,-7,-3,-2,-10,1,18,31,4
-1,4,0,3,4,-3,-10,5,4
1,4,-1,1,-1,2,0,-2,4
-13,-4,3,-4,-11,0,16,21,4
6,0,-2,-2,9,-8,-92,-2,4
-8,-9,-10,-3,-8,6,88,10,4
3,-3,-1,1,9,-8,-80,-30,4
12,4,0,0,-4,9,-1,-27,4
-4,-9,6,1,-2,0,29,-3,4
18,6,-9,0,-5,0,40,0,4
37,15,3,-1,-8,0,-22,20,4
-40,-12,19,3,11,-5,-28,-26,4
54,10,-7,-2,-4,3,3,22,4
-3,18,1,-2,2,-4,-8,-49,4
10,6,0,0,-3,3,56,18,4
-1,14,-2,0,-3,-6,-26,-16,4
-12,-5,2,-3,3,0,-8,-40,4
-1,-6,5,0,-7,-1,-22,8,4
0,-10,-26,-3,-5,0,32,-1,4
11,-12,-3,-1,1,-4,-17,-11,4
-25,-14,3,0,3,1,31,-23,4
-8,9,-2,-1,-7,3,12,5,4
-14,-19,-3,-2,-8,-3,6,-5,4
13,14,1,1,-6,7,27,62,4
-13,2,-2,1,-1,-2,2,14,4
2,-7,1,-1,-2,-1,7,32,4
-12,3,7,3,-2,5,61,36,4
-22,-9,-10,-7,-13,-6,-82,-43,4
-12,3,5,2,-4,4,68,38,4
3,-4,-2,-2,5,-8,-80,6,4
88,2,5,3,-41,7,3,-21,4
-13,0,-9,-4,5,1,110,17,4
-28,-1,-3,-3,4,-10,-111,4,4
3,-5,1,0,-11,2,60,3,4
-108,-7,-14,-5,13,-5,-44,-6,4
60,-2,-13,-2,-15,0,1,8,4
9,-1,-1,0,-1,3,26,9,4
-16,2,3,-3,11,-4,9,24,4
-18,-5,-8,-4,8,-3,-25,-33,4
6,-39,-10,1,-4,-2,1,39,4
-19,26,-2,-6,6,-2,8,70,4
-6,-1,-3,1,4,1,-20,-26,4
-8,11,7,-2,3,-11,-14,26,4
62,4,5,-1,-5,1,1,-19,4
-48,-19,-5,1,11,-1,-37,-59,4
28,2,4,0,0,1,17,-10,4
18,-4,6,1,1,2,12,21,4
-17,10,0,2,1,3,21,16,4
-10,-1,2,1,-4,2,45,-17,4
-10,0,-2,-3,6,-3,-33,-55,4
-10,5,3,0,0,3,37,6,4
31,-5,-1,-1,-9,-4,-61,-32,4
17,-2,0,1,-12,5,34,-5,4
-12,-42,-5,-3,6,0,0,13,4
72,-1,-6,0,-18,0,4,-12,4
-41,35,2,-3,17,-3,14,3,4
11,1,0,-1,-6,-1,-2,-12,4
-25,1,-1,1,1,-3,-16,20,4
18,1,-4,1,0,6,12,49,4
-20,-4,1,-1,-5,-5,-3,-36,4
1,-3,-2,-2,1,-3,34,18,4
-21,9,-3,-2,5,-3,-10,6,4
-24,5,9,1,5,7,63,-15,4
-43,-4,-2,-4,2,-4,-23,13,4
18,8,0,4,11,2,-14,6,4
7,19,10,1,-5,8,30,-3,4
-26,-18,-2,-1,8,-1,9,-12,4
11,16,5,0,10,-3,-58,-2,4
-41,-8,-2,-5,0,-5,19,-20,4
10,14,6,3,-4,2,-9,10,4
-65,-2,-1,2,8,5,-8,30,4
-46,-9,2,-3,16,-4,6,-17,4
8,11,-9,1,-13,1,-8,-5,4
-1,-1,-5,-1,3,-3,27,-11,4
9,2,1,-2,-2,-3,-24,3,4
-6,-13,-1,3,-6,3,48,25,4
12,0,1,-3,2,-3,-36,-1,4
-11,-15,-10,-3,-7,2,17,5,4
28,-19,2,-2,-3,-9,-53,-38,4
-15,12,3,1,5,4,70,50,4
45,3,3,0,5,-8,-78,-53,4
-10,-4,-8,0,0,4,13,18,4
-13,10,9,0,10,-4,-21,-26,4
-18,-4,-3,1,-3,-2,-30,-25,4
42,-10,9,1,-21,6,36,-14,4
-26,-20,-2,-2,6,-4,1,-36,4
-10,8,-3,-1,7,-4,-81,-3,4
33,0,-2,2,-5,-1,-4,37,4
-14,-4,9,1,9,-3,7,-7,4
15,13,4,0,-5,-4,-43,4,4
53,11,6,-1,-6,4,23,-36,4
-22,-1,-6,-4,1,1,5,14,4
3,-7,-8,-1,-4,-5,-33,63,4
12,2,-2,0,-2,1,7,27,4
-14,-6,-4,-2,5,0,12,9,4
-30,-8,-2,1,2,2,16,4,4
0,42,9,0,-4,-1,-5,-1,4
53,-14,-21,-4,-5,-9,-25,-31,4
55,1,-1,1,0,3,9,4,4
-11,-10,-17,-4,-9,-5,5,-10,4
-15,-23,-19,-3,7,4,22,11,4
-19,11,7,2,-1,-1,-17,19,4
-6,6,3,-2,-1,-1,23,-6,4
14,-6,-1,0,-5,4,3,-18,4
-85,-14,2,-2,14,-5,-32,-35,4
35,11,5,-1,-12,2,26,80,4
-32,-24,-16,-3,0,0,-9,24,4
-1,-1,4,-3,-4,-4,-24,0,4
-2,-7,1,0,-7,2,46,-2,4
-9,7,3,1,4,2,-11,7,4
-42,2,-2,1,-12,1,28,16,4
0,2,4,0,0,-2,-29,3,4
8,3,-8,2,-12,2,24,32,4
-11,-4,10,-1,5,-3,9,-53,4
48,-13,4,-3,-17,-8,-32,-30,4
60,3,-5,1,-4,0,18,-49,4
10,-3,-5,0,3,2,-5,11,4
-2,-1,3,-1,10,-1,-10,-21,4
-48,5,12,2,16,-3,0,0,4
-43,9,3,1,18,4,-1,25,4
30,-1,0,1,4,0,14,-38,4
-29,7,-6,-4,7,-6,-39,-4,4
3,6,3,1,12,2,18,-4,4
-6,-6,-6,-2,-3,-4,-71,-9,4
-1,9,5,2,-2,5,22,14,4
0,-3,-2,0,-5,3,25,30,4
-25,-7,-8,-2,3,-1,5,-12,4
8,-4,1,0,-6,2,6,-8,4
-17,-1,-3,-4,2,-4,16,-14,4
8,1,0,-1,2,-9,-62,-19,4
-6,1,-4,0,0,3,17,-1,4
9,4,0,-1,-13,1,17,10,4
6,2,2,0,-7,2,-19,8,4
-22,-12,-6,-2,5,-1,40,-12,4
11,6,-2,-1,-5,0,-7,8,4
27,-1,-6,-2,-9,-7,-8,-8,4
31,-20,-9,-2,-4,-1,-27,-21,4
-1,29,14,-1,-3,4,20,2,4
-11,-20,-5,-2,4,-3,-1,19,4
9,4,9,1,-7,5,35,5,4
-12,0,-1,0,3,-4,-8,1,4
4,-8,2,0,-1,1,9,14,4
3,11,0,1,1,3,0,6,4
-15,4,1,-3,-7,-9,-82,5,4
-3,-10,8,-1,6,-1,32,5,4
-19,-16,-24,-2,-1,0,3,-13,4
-11,10,0,0,-9,3,0,4,4
-17,-9,1,-3,5,3,-1,-8,4
-3,11,1,0,-5,-3,-19,-6,4
2,-16,3,1,-5,2,17,35,4
-23,1,-5,-1,3,1,11,-50,4
4,-2,-7,-1,16,-3,-67,-16,4
-8,-12,-6,0,-12,-1,39,0,4
-3,-1,-1,-1,5,-1,20,-5,4
6,0,-1,0,4,-3,-25,4,4
-4,3,8,-1,-1,-1,74,3,4
6,7,-3,1,9,1,-22,-12,4
-9,-1,0,0,3,-2,-21,-41,4
-1,-1,-25,-4,13,-4,9,-6,4
90,-3,-10,-1,-16,3,18,-49,4
-7,3,-2,-2,4,3,0,-6,4
-1,-4,-2,-2,-6,1,1,13,4
11,-1,6,-1,3,-4,-53,6,4
-17,9,16,1,7,0,25,4,4
-2,-3,-7,2,4,-3,-24,15,4
24,26,4,-1,-2,2,-3,-47,4
8,4,4,0,-6,-2,49,27,4
-19,-6,0,-1,1,3,-4,14,4
41,6,9,1,-3,0,9,36,4
-8,-3,2,0,4,0,-27,30,4
5,3,5,-2,12,-5,-16,-15,4
-9,-5,-5,-2,12,-4,24,5,4
-5,-1,1,1,3,5,31,27,4
1,0,-13,-2,6,-4,-35,-3,4
-2,-6,-3,0,-7,1,-2,3,4
-15,-2,-1,0,6,-2,27,-7,4
3,4,0,-2,2,0,-38,10,4
10,-5,1,5,1,0,29,-4,4
-12,31,19,-2,2,-4,12,-13,4
-21,2,-11,1,4,4,-18,11,4
-17,-5,-1,-2,-5,-5,26,-16,4
-1,-1,1,-3,-6,1,-9,-26,4
10,-4,-5,-2,-9,2,-11,14,4
-15,7,1,-2,-4,-3,-14,5,4
-4,2,-1,-2,-6,-4,10,-9,4
1,-3,-3,-1,0,-1,1,65,4
-6,-7,-3,-1,0,-8,-2,-32,4
6,-1,2,0,-11,-2,-12,-8,4
3,-7,-4,0,-5,-2,-11,-2,4
-23,-9,3,2,-6,3,25,27,4
16,-9,-14,1,-11,3,16,24,4
-2,-4,-2,1,-13,1,-6,5,4
-9,5,6,-3,-5,-4,-22,-26,4
-2,14,0,2,0,0,6,-43,4
11,-3,-5,0,0,5,45,48,4
-3,-4,-1,-2,-1,-5,-19,-16,4
-11,0,-1,-3,-4,0,-8,24,4
-6,-6,-3,-1,2,2,-7,-12,4
-15,-15,1,-3,0,-1,-5,-7,4
2,1,5,4,3,1,28,19,4
6,8,-8,-3,4,3,1,-4,4
3,-18,-11,-4,-3,-9,-27,-14,4
-7,3,6,3,15,-1,6,-27,4
11,0,-1,1,1,4,-16,10,4
-10,-9,-1,-3,3,-5,-3,-10,4
5,0,1,1,-3,3,41,4,4
22,12,3,0,-4,-8,-70,-7,4
-16,2,-2,-1,2,-2,17,-3,4
-3,-6,3,3,6,4,-19,-12,4
7,2,1,-3,5,-2,-21,-18,4
-9,-10,-1,-3,4,0,23,21,4
8,8,15,-1,0,-2,-6,25,4
-26,-10,-4,-2,8,-1,-16,1,4
26,-19,1,2,1,3,16,-6,4
7,13,-4,1,-3,3,-22,-11,4
-6,-5,5,-3,5,-3,9,-47,4
-13,12,-1,-4,9,-2,-7,-53,4
-11,6,-1,-1,-1,0,23,17,4
-14,-12,0,-3,10,-7,-80,-94,4
3,4,7,0,-3,4,42,22,4
4,3,10,5,-4,1,-8,25,4
-4,14,-1,-2,-3,-3,-6,-22,4
-13,0,-2,1,0,4,16,-6,4
-5,-6,-4,-3,16,-5,-32,-3,4
8,2,1,1,-3,4,14,24,4
-4,-8,1,2,2,3,2,-26,4
-14,-3,-3,-1,-2,-1,10,34,4
-3,-11,-11,-3,-8,0,-19,4,4
21,0,1,1,-2,-1,13,19,4
2,5,-11,-2,-1,-4,-18,7,4
1,-3,-2,2,-5,3,38,27,4
-2,2,-4,0,13,-1,-25,-30,4
-2,-21,-6,-2,2,-1,6,-4,4
-9,16,26,1,-9,5,35,49,4
-2,-5,-5,-3,8,-3,-3,0,4
-45,-8,-5,-2,-9,-5,-68,21,4
-28,12,-5,-1,7,2,39,-15,4
-5,-12,-1,-1,1,-6,-32,-2,4
8,-4,1,1,-6,2,21,18,4
9,1,-1,1,-7,0,10,2,4
12,11,3,0,-12,-1,26,22,4
-5,-6,-4,-1,-1,0,-2,5,4
-12,3,6,-1,7,-7,-15,-1,4
0,2,-10,-1,-6,1,30,-14,4
8,-13,-11,-1,4,0,-4,-23,4
17,2,-2,-2,7,-2,-7,10,4
-2,-6,-3,-2,-16,2,5,-6,4
7,3,5,2,6,3,23,19,4
7,-5,3,-3,7,-3,-40,-13,4
6,-5,-11,2,-4,1,-13,-6,4
-12,-17,8,-3,6,-5,25,24,4
11,2,-2,0,7,-1,-7,26,4
-16,8,6,0,-3,1,10,20,4
15,0,2,1,1,-1,-2,-21,4
3,11,-2,0,-5,-3,-37,-8,4
-7,-11,-2,-1,-6,-6,-46,-22,4
2,1,2,-2,-12,0,11,4,4
-52,-13,-17,-4,5,-1,8,6,4
9,4,-1,1,-5,3,10,-10,4
-7,6,-3,-1,-2,3,20,11,4
5,2,2,0,-7,-5,-19,-29,4
7,5,-7,-1,-11,0,41,-2,4
0,-3,-18,-3,3,-4,-26,-29,4
-1,5,8,-2,3,3,18,-13,4
-13,-3,-1,-2,-4,-3,-28,-5,4
-5,5,6,0,-1,1,22,-14,4
10,12,4,-1,1,-2,-26,13,4
22,-17,-3,-2,3,-3,16,-13,4
-11,-17,-7,0,1,4,25,5,4
59,-5,5,1,-5,1,-8,-12,4
0,16,2,-1,4,-2,20,-38,4
-9,5,-3,0,1,-5,-24,6,4
3,-14,-1,0,11,2,15,12,4
-13,-10,2,0,5,-1,-14,9,4
4,6,8,2,0,2,-2,9,4
10,-4,-3,0,7,-2,53,-10,4
-1,9,-19,-2,-3,-2,-7,-5,4
-12,6,1,-2,2,-1,-10,9,4
2,-8,-4,0,2,-1,-48,5,4
-42,0,1,-2,0,1,15,1,4
47,-2,-31,-3,-6,3,-29,-34,4
-20,-7,-6,-7,5,-6,28,-58,4
2,-18,1,1,5,0,-11,-8,4
11,5,-4,-2,-4,0,-25,-4,4
-12,4,12,3,4,-4,17,42,4
-8,1,2,0,4,0,8,-19,4
9,-2,-5,0,-2,1,19,10,4
9,4,0,0,-5,2,32,1,4
-2,-14,3,-1,10,-7,-79,-19,4
2,9,1,-1,-5,-3,13,23,4
-7,10,7,0,4,-3,-24,0,4
26,1,2,3,-8,5,30,9,4
-5,7,3,-1,-2,-2,58,20,4
-8,-2,-3,0,0,0,-54,27,4
-7,-7,1,-2,2,0,17,-14,4
0,4,-5,-3,-8,2,-18,19,4
3,11,5,-1,6,-1,13,-5,4
22,-9,-10,-2,10,-2,-10,-60,4
-8,-7,-3,-2,-11,0,49,20,4
1,7,0,3,5,-3,-52,-22,4
-2,-4,7,-1,-1,1,12,-3,4
-34,18,-19,-2,-1,-2,11,25,4
-8,-12,-5,1,-2,4,14,-5,4
0,-7,4,0,5,0,23,6,4
-20,5,5,-1,1,-2,-21,32,4
-7,3,8,-1,-4,-2,-24,-20,4
6,3,-2,0,-3,4,26,31,4
-8,-10,-3,-1,-3,-4,-22,-26,4
-25,2,1,0,9,-2,4,8,4
11,-6,5,0,-3,0,37,29,4
18,6,-1,0,-1,-3,-16,-31,4
7,-4,2,-1,0,-1,-3,-16,4
17,-10,-2,2,-5,1,2,-16,4
33,4,10,1,1,0,-11,21,4
2,19,5,1,-1,-2,7,3,4
-21,1,-3,-1,-1,-4,3,-9,4
-3,-5,-6,-2,1,-1,-8,-9,4
-10,-2,6,0,2,1,46,19,4
-6,-6,-3,-1,-14,-1,-1,-1,4
4,-4,-1,-2,6,-6,-47,-9,4
-4,4,-2,-2,4,1,8,-37,4
-31,-9,1,-1,-6,1,-13,15,4
51,5,10,4,-5,8,63,22,4
-17,17,-14,-7,10,-10,-37,-18,4
-10,-12,10,-2,-2,2,-13,3,4
-13,3,-3,1,1,1,-7,-3,4
-26,-1,1,-1,3,-3,1,1,4
9,-1,3,0,-11,3,19,3,4
5,6,15,1,-9,-3,2,-10,4
7,-2,-3,0,0,4,-4,-4,4
-15,-5,-4,-2,4,-6,-66,-18,4
57,-4,2,2,-4,6,53,2,4
-13,-17,-7,-4,-5,-4,-3,10,4
10,3,-6,0,-9,0,-17,26,4
-2,6,3,-2,6,1,2,-34,4
-20,-5,0,-3,-2,2,30,6,4
23,23,2,3,-1,2,-23,7,4
-1,-3,4,-1,1,-5,-20,-37,4
-1,-9,-8,-3,-5,-2,11,59,4
-13,-14,-9,-1,-6,1,12,5,4
-14,12,-2,0,1,4,22,13,4
12,1,1,0,0,0,19,6,4
-9,-4,-2,1,5,-2,-39,-2,4
1,0,3,0,-1,2,16,18,4
10,5,18,2,-14,0,5,14,4
-13,6,-5,-2,1,0,3,16,4
-2,-3,-2,0,2,-1,9,2,4
3,6,3,3,0,-1,-33,-2,4
0,0,0,-1,-3,-2,21,6,4
-21,2,3,-2,8,-7,-35,-8,4
33,3,-10,1,12,0,-33,41,4
-36,14,2,-4,-16,-1,3,-15,4
-6,4,-6,-1,12,1,-1,-32,4
5,-3,6,1,4,2,9,11,4
3,-4,-3,-2,8,2,4,24,4
-5,-1,1,1,7,-4,-15,-42,4
5,-13,-17,0,2,-2,-17,-6,4
18,-1,-2,0,-2,1,43,9,4
-10,16,10,-3,2,-3,-6,-43,4
9,-3,-2,0,8,0,-21,16,4
-10,-21,-6,-3,1,0,36,-12,4
8,-22,-13,-1,-1,-4,-50,2,4
-3,0,-2,-1,1,0,25,-8,4
-2,-6,-2,1,4,1,16,31,4
18,15,2,-2,1,0,-1,-10,4
-2,10,1,-2,6,-1,-3,-16,4
-13,-14,-4,-3,6,-5,-6,-28,4
6,7,0,0,1,-1,-4,18,4
-3,6,0,1,4,-2,3,26,4
5,0,8,-1,10,0,3,7,4
3,2,-17,-1,0,1,19,-42,4
-8,-1,7,0,8,-3,-27,0,4
-7,4,-8,-2,1,-2,1,16,4
3,6,4,0,3,1,26,-6,4
-6,2,4,1,-9,0,3,28,4
10,-7,-1,1,10,-2,15,21,4
-5,1,-2,2,6,1,-12,-36,4
58,-8,5,0,-19,-4,-40,-5,4
-2,-23,-2,0,6,0,-14,-29,4
-2,12,34,1,-12,1,10,7,4
9,1,-10,-4,6,-6,9,15,4
-5,7,0,0,6,2,14,-8,4
-4,2,2,0,0,-3,-20,23,4
15,0,1,1,-8,3,6,8,4
-7,-14,-4,-2,-4,1,-8,18,4
-20,-1,-5,-1,4,-5,8,-9,4
0,-4,3,0,-5,1,1,9,4
38,29,2,0,3,4,25,-17,4
-11,-14,-2,-1,3,-7,-83,-21,4
3,4,-6,-2,3,4,3,5,4
-27,-4,0,-1,-3,-1,7,-49,4
-23,-16,-18,-5,6,-6,-23,-36,4
4,1,8,2,2,2,7,-7,4
-7,3,2,0,-6,1,1,15,4
6,-8,-4,-3,11,-2,3,-38,4
-23,-11,-11,-2,-1,2,19,-18,4
50,10,3,0,-5,-3,11,7,4
-26,-2,3,-1,0,-3,-5,0,4
-20,13,-5,-4,-5,0,6,40,4
32,-22,-19,-2,-15,4,13,0,4
-6,5,-2,-2,3,2,18,-44,4
-1,2,-3,-1,-6,-5,-53,-7,4
5,-4,0,-1,-11,-2,6,1,4
-7,-3,5,1,0,2,23,-25,4
-7,-7,-9,-3,-2,-4,-29,-3,4
1,-1,-2,-2,7,-1,7,-25,4
0,5,3,0,-7,1,-16,9,4
2,18,-1,0,-10,-2,-4,23,4
9,-14,-3,1,-6,3,9,-16,4
-6,-15,1,3,-2,0,14,12,4
0,17,8,0,-6,1,11,-5,4
-8,-3,-2,2,-5,0,-38,10,4
-30,9,2,-1,2,2,23,14,4
36,-6,-5,-4,5,0,44,2,4
-6,-8,-4,0,-7,-2,-40,-5,4
-35,-2,0,0,7,1,10,-2,4
20,7,3,2,2,-2,-59,-13,4
-18,-3,-3,-2,2,2,43,8,4
-1,-1,-1,0,4,-1,12,19,4
-24,-4,-3,-3,6,-5,-11,11,4
8,1,2,0,1,2,-34,-1,4
-24,8,1,-3,7,1,-4,-8,4
13,-11,-15,-4,-8,-6,22,-10,4
21,-4,-5,-1,17,-4,-39,-21,4
-14,-5,-1,-1,-11,-5,16,-10,4
9,5,-1,1,-1,-1,-5,20,4
-10,-2,18,3,8,5,-4,-7,4
-5,21,0,1,-11,1,19,13,4
-13,-13,2,-3,0,-2,13,6,4
1,10,11,1,3,1,-25,-20,4
4,-3,-4,0,-2,-2,6,-31,4
6,21,7,3,-2,5,41,15,4
-58,0,-4,-2,4,-5,-16,34,4
8,-6,-4,-1,4,-1,28,-17,4
-13,-18,-12,-3,7,2,17,29,4
-15,-14,-3,-5,4,-4,-15,1,4
7,-2,-15,0,0,5,30,16,4
6,-8,-3,-3,-7,-1,-15,-6,4
4,9,-3,-1,3,-4,-1,-22,4
1,-10,5,1,-1,-1,-17,1,4
14,6,4,0,5,3,45,-2,4
-2,-16,-2,3,4,0,-44,-1,4
1,-9,-9,-5,1,-2,1,-34,4
3,-15,-2,1,-6,-2,-8,29,4
-7,19,11,-2,-6,-4,-16,-8,4
61,7,0,2,-5,3,44,-4,4
-8,2,6,0,-1,-2,-32,15,4
-35,-10,-6,-2,8,0,29,-1,4
8,5,19,2,6,1,7,10,4
-58,6,2,-2,7,-4,-21,10,4
54,8,2,1,-8,4,9,5,4
-32,-1,-6,-2,2,-6,-23,5,4
17,0,-2,0,10,2,19,3,4
-19,-5,11,-2,1,-1,8,8,4
-61,-3,-9,-1,3,-3,-44,74,4
16,3,0,1,-5,2,-15,5,4
7,0,-2,0,-8,4,28,10,4
-17,-15,-3,-2,2,0,7,-48,4
-5,2,-3,-3,4,0,37,10,4
14,-5,-1,0,-3,-1,3,-17,4
4,-5,-5,0,3,0,-14,2,4
12,11,-7,0,-8,2,6,31,4
15,-21,2,2,-8,-1,8,6,4
19,18,4,-2,-3,-1,3,-13,4
-2,8,-2,-3,-4,-2,-17,-10,4
-11,-34,-6,-1,14,-1,-1,6,4
12,7,-4,0,0,3,-9,6,4
5,-11,-2,-2,0,-6,-47,-4,4
3,-7,-6,-1,3,2,9,1,4
13,11,-3,-2,3,-3,-9,12,4
-2,3,4,1,2,1,-7,-24,4
15,-12,2,-2,-9,9,91,14,4
-6,2,0,-4,4,-13,-99,-25,4
-4,1,-1,-2,-11,-4,-15,-1,4
7,6,-2,0,-5,2,38,46,4
-5,-4,-4,-3,1,-1,25,-14,4
-3,-10,1,1,-7,2,42,-2,4
-4,7,-3,-1,8,-7,-70,-18,4
-7,-3,4,-2,-13,3,19,-5,4
33,15,5,3,5,-1,-17,8,4
6,-9,-3,1,2,3,27,31,4
50,3,1,-1,-13,2,0,4,4
-10,7,0,-1,3,-2,-12,-22,4
-3,-1,-3,0,-1,0,-14,-25,4
-19,-27,-21,-3,-2,-1,-14,-4,4
12,12,6,0,-1,1,34,37,4
-11,-5,0,-1,4,-8,-13,-25,4
-2,-1,-8,0,0,0,-3,2,4
14,13,3,1,-4,5,28,31,4
-9,-5,-1,-1,-9,3,14,-4,4
5,1,-1,-1,0,-2,-14,-22,4
-13,-1,0,-2,-4,-2,-17,-9,4
3,5,4,-1,8,-1,3,-27,4
-17,-5,-14,-2,7,3,29,-5,4
33,7,4,2,6,2,10,7,4
4,-8,-1,-2,0,-4,-20,4,4
4,-3,-7,-2,-5,1,8,-8,4
4,13,3,1,11,-3,-14,2,4
-12,2,-1,1,-3,3,26,13,4
-48,-36,-14,-4,4,-5,-32,-38,4
19,11,8,0,-8,-4,-26,17,4
-19,-2,-2,0,-1,2,-21,10,4
13,-9,-7,1,0,4,-15,-27,4
-3,8,11,-2,6,-2,47,-11,4
-5,-2,-8,0,5,-3,-17,6,4
-2,2,7,0,-6,-2,0,-21,4
9,9,1,0,3,-4,-13,-9,4
-5,0,-4,-3,-11,1,3,7,4
5,-6,-3,-1,-2,-1,9,-2,4
-7,-6,-7,-2,6,0,-1,-28,4
27,9,2,-1,-2,2,-3,-42,4
15,5,1,0,0,-7,-64,-8,4
6,0,3,-2,-3,4,31,-17,4
7,-3,-16,0,4,3,-17,65,4
-34,-12,0,-2,-12,-3,9,-21,4
15,12,1,0,-3,4,3,5,4
-5,-4,8,0,0,2,45,-6,4
-2,2,0,-3,4,-8,-74,-20,4
-2,-3,-3,-1,12,-2,8,2,4
8,10,-1,3,0,3,5,11,4
-14,-2,0,-4,3,-1,5,-35,4
7,-13,0,1,5,5,32,13,4
-10,-7,0,-2,-9,1,-10,17,4
-8,-1,-6,-3,-9,-1,48,2,4
-16,16,-4,0,9,-5,-71,-27,4
-4,4,3,0,0,1,6,-15,4
-2,4,-2,-1,-2,-3,-26,27,4
21,-5,-1,2,-3,3,25,38,4
-12,-5,-1,-1,-8,-2,2,-8,4
31,8,5,1,-2,-3,21,-4,4
-39,6,7,1,2,0,7,10,4
57,9,-3,-1,-6,0,-50,-55,4
-25,-8,-2,-2,-5,-3,7,11,4
-12,-2,2,-1,3,-2,10,-3,4
7,-3,3,1,8,1,32,19,4
-12,-4,4,1,-2,5,32,15,4
19,7,2,2,9,0,-48,-15,4
-9,5,-2,0,-14,0,27,2,4
6,-1,0,1,10,-2,7,-34,4
-26,-5,-2,-1,0,2,-11,10,4
22,8,0,1,0,1,29,32,4
-15,9,23,1,4,-3,-1,-8,4
7,5,-12,-3,1,-2,-28,-12,4
-7,1,2,0,3,-1,-5,8,4
5,-6,2,0,2,-2,-1,5,4
0,4,0,-1,4,0,17,-5,4
0,-4,1,0,-3,-1,-27,12,4
0,-18,-5,0,4,-1,-8,-17,4
7,18,6,1,5,2,22,2,4
-12,-6,-10,-2,-8,0,4,14,4
0,-15,5,-1,0,-2,-4,15,4
-10,-9,-15,0,-1,0,15,6,4
-26,0,0,0,-2,0,-29,7,4
21,-6,5,0,4,1,10,21,4
1,6,-1,-1,-15,0,30,-3,4
7,7,9,-3,2,-5,-33,-18,4
-11,-20,-6,-1,-6,1,45,8,4
0,-3,-6,-3,-1,0,-52,-9,4
4,-1,-6,-4,-11,3,37,23,4
-3,-8,9,1,1,-2,-18,-2,4
15,28,7,5,-13,4,5,10,4
-13,-8,-11,-4,1,-5,12,-30,4
0,-1,3,0,-1,0,20,25,4
-17,3,12,-1,1,-2,-25,-5,4
0,-9,-11,-2,3,1,12,7,4
5,5,0,0,3,5,22,22,4
-9,-4,-2,0,-7,-1,-38,-49,4
4,3,-2,1,-6,3,23,34,4
-2,-3,0,-4,5,-6,-3,-3,4
-4,-2,-2,-1,-1,0,26,-7,4
0,0,-3,-2,-6,-3,-51,-19,4
-1,10,-6,-1,0,3,32,-21,4
9,-14,-2,-2,5,-6,-77,9,4
-8,-3,10,-2,-2,-4,11,-10,4
20,5,2,-1,0,2,-8,-9,4
-25,7,-4,-2,8,-10,-28,17,4
-4,-5,1,-1,0,4,47,-6,4
-6,0,-10,1,6,-6,-67,-10,4
-11,13,1,1,-4,2,3,-6,4
-10,-22,-5,-3,5,-2,12,-6,4
3,-2,0,0,-3,-1,-16,-25,4
-6,-4,-1,-1,-4,-1,19,-3,4
0,-3,0,1,5,-3,1,-31,4
7,7,7,1,-12,5,39,28,4
19,-12,-12,-1,2,-6,-93,-10,4
5,5,0,1,5,5,26,4,4
1,-4,-2,2,-15,-1,-2,41,4
-4,-12,2,-4,7,-6,10,-67,4
-50,-6,0,-2,1,0,16,-8,4
25,3,1,0,1,2,-37,10,4
-1,-6,-21,-2,-11,-1,7,0,4
-6,7,-1,1,1,0,-1,29,4
19,4,4,-1,-2,1,23,4,4
-22,-17,-17,-4,5,-4,-16,-29,4
13,15,9,-1,2,-1,18,-3,4
-5,-3,-2,1,-6,0,-23,-15,4
12,-1,-3,-2,10,1,27,26,4
0,10,5,0,-7,-1,3,-9,4
3,-14,8,0,5,0,-53,5,4
5,16,-10,-4,-1,0,27,48,4
3,-15,6,-3,-2,3,8,-16,4
-3,-7,1,1,3,-3,-10,16,4
-15,-5,0,-3,6,-4,-7,-4,4
3,0,-3,0,-3,1,-4,2,4
-2,5,1,1,7,2,13,-2,4
4,0,-1,-1,-8,1,36,10,4
-16,-7,-4,-2,8,-4,-24,-41,4
-4,11,5,3,5,-1,1,26,4
36,-1,-8,-3,-13,2,36,29,4
-12,1,2,0,13,-3,-36,-45,4
5,-3,6,2,-4,1,16,15,4
3,-25,-25,-5,2,0,-21,-12,4
-15,34,11,-1,4,-1,-3,13,4
0,-2,-3,-2,-2,-4,7,9,4
9,5,0,0,-1,2,12,-5,4
-16,0,10,-2,-3,0,-12,-20,4
-1,3,11,3,15,0,3,19,4
6,3,-5,1,-2,0,1,2,4
-15,1,-2,-1,-7,-2,10,-4,4
1,1,2,-1,-2,2,19,32,4
-25,-10,-4,-3,4,-7,-25,-50,4
8,-1,-8,-2,-12,6,-9,7,4
-11,-2,-1,-1,4,-2,29,-4,4
9,1,3,1,-6,-3,2,-2,4
-4,-8,-7,-2,-3,1,-1,-8,4
2,0,4,1,-4,-1,26,18,4
21,-6,-6,-3,0,-3,-23,-72,4
-24,-1,7,-1,3,-2,-3,-10,4
-12,-7,-4,1,6,0,-24,-6,4
10,21,10,-2,-2,1,59,4,4
12,3,2,1,0,0,-44,28,4
3,6,2,-1,-1,2,6,-7,4
-4,-8,0,-2,-4,-1,-11,-21,4
-17,-2,12,0,-1,-1,23,-19,4
-18,-8,4,1,8,-2,36,4,4
34,14,6,-1,-2,-2,-20,-22,4
-11,6,-9,-5,-14,-5,5,-5,4
2,-5,-3,2,9,3,-2,12,4
6,-3,5,-1,-4,-1,18,24,4
-2,0,-5,-1,-6,-1,2,-11,4
19,0,1,1,3,3,5,4,4
-11,-4,1,-1,-3,-7,-22,19,4
9,3,-4,0,0,2,-11,10,4
-6,-5,1,2,8,0,-15,13,4
-6,1,-1,-1,-9,1,0,33,4
0,-7,-1,-3,-5,6,42,-2,4
-10,-8,-6,-3,22,-9,-96,-53,4
-5,-4,-2,0,-7,-1,46,-12,4
1,-1,-2,1,3,0,16,-8,4
-6,-3,-6,0,4,-2,-22,1,4
-9,3,-1,-1,-4,0,32,-14,4
9,-6,0,0,4,1,-27,6,4
-10,0,3,-1,7,-3,8,-61,4
15,-22,-7,2,-3,2,-34,54,4
-10,13,0,-4,4,-1,-18,29,4
-11,-5,15,-1,3,-2,-3,3,4
-12,3,-23,-2,-3,0,4,30,4
24,11,1,-2,1,2,10,34,4
7,-5,-5,0,-3,2,77,8,4
-28,-14,-4,-2,11,-6,-71,-35,4
15,11,11,1,2,0,-7,16,4
-13,-2,-1,-1,3,-2,-13,-24,4
12,6,-1,2,-2,4,22,14,4
0,1,-6,0,-6,2,34,-5,4
4,-5,1,0,6,-1,4,14,4
-1,5,-14,-2,1,-4,-31,-31,4
-15,-1,3,-1,-9,3,20,13,4
5,-3,-4,0,5,-1,4,-21,4
-36,-2,8,-3,-1,-4,-22,8,4
0,3,4,0,-3,-1,7,-36,4
7,2,0,0,0,2,-4,22,4
18,3,-2,0,-1,4,8,5,4
8,5,-1,0,-6,-4,4,25,4
-20,-8,-7,-2,-13,-2,-4,-13,4
-3,-3,-2,1,5,-4,-22,-9,4
2,17,-3,0,-9,1,18,-6,4
8,1,-1,2,4,-1,-26,2,4
1,3,6,-1,-4,-2,6,-5,4
22,-20,-10,-3,-1,-3,-1,11,4
17,11,10,2,4,2,21,11,4
18,-13,-12,-2,-2,-10,-37,-56,4
7,4,0,0,-4,-3,22,19,4
-2,-4,-4,-1,-4,2,5,-1,4
12,-4,-3,-3,7,-3,-7,13,4
5,-2,3,0,0,5,23,0,4
-2,-3,3,0,9,1,-21,8,4
1,11,1,-2,-5,0,22,-1,4
-13,-3,-2,0,0,-5,31,7,4
2,-6,0,-1,14,-2,-71,-7,4
22,0,-3,0,5,-2,10,-23,4
-15,9,12,0,-4,-2,22,15,4
27,-6,1,1,-2,-1,-23,0,4
-16,-27,-8,-2,-4,7,49,-22,4
2,9,6,1,2,-1,4,16,4
-9,-10,-5,-2,4,-4,-34,-11,4
-10,-22,-7,0,-13,-1,-15,-10,4
-5,12,10,1,2,1,13,16,4
1,0,-3,0,11,-1,-10,-10,4
12,5,13,2,-8,-1,7,-50,4
-10,-21,-21,-3,-1,-3,-14,9,4
-10,0,0,-1,2,3,32,7,4
3,9,1,-1,-1,-2,-24,-24,4
3,-6,-4,-1,-2,0,-29,16,4
-4,7,3,-3,0,0,3,-8,4
-2,1,-7,-2,-9,-1,0,16,4
3,-9,-2,-1,13,-3,-13,-15,4
-20,1,-4,-1,-5,-5,-3,-28,4
-12,2,2,-3,0,-1,4,-20,4
6,0,-1,1,-5,0,2,-5,4
-35,1,1,1,-9,3,14,29,4
16,1,-2,0,2,0,-1,1,4
7,8,0,1,-1,2,35,5,4
4,1,0,-2,2,-5,-31,-39,4
-14,-4,0,1,-8,3,38,-26,4
-14,-16,-5,-3,2,-4,-70,3,4
0,-10,1,1,1,2,19,5,4
6,3,1,0,0,-1,-14,-1,4
7,-2,-3,-3,-7,-1,7,3,4
-2,-1,4,0,-7,4,54,16,4
1,12,1,0,-9,-1,-48,-7,4
2,-24,-7,0,-3,4,42,23,4
5,13,6,1,-9,1,29,12,4
3,0,-1,1,-8,-3,-45,21,4
-1,-4,-3,-2,2,4,2,-14,4
-19,-2,-1,-1,-4,-1,6,19,4
-6,-4,9,-2,-10,0,38,31,4
7,4,-8,-1,5,4,26,3,4
-13,10,2,0,-3,-5,-29,3,4
10,5,3,0,-2,-5,-27,-14,4
-2,-16,-5,-2,10,-3,-52,-26,4
3,13,4,1,3,0,2,7,4
-11,-5,-6,-4,-5,-2,6,25,4
12,7,1,1,-5,2,16,11,4
-7,0,-3,-2,4,-4,-27,-5,4
-6,-5,-3,-1,6,-1,5,-38,4
1,1,-1,-1,5,1,6,8,4
23,3,-10,-2,5,-1,2,-3,4
2,-1,-5,-2,4,-3,-18,1,4
-8,-6,0,-2,4,-3,20,7,4
5,5,0,-1,-5,0,10,9,4
-9,-3,3,-2,5,-2,0,-1,4
6,0,-2,0,-4,0,-13,40,4
2,-4,-7,-1,7,0,-3,-13,4
-1,-3,0,-1,12,-1,-5,3,4
-3,-13,-4,0,-3,1,30,19,4
6,18,1,0,7,3,6,-6,4
-17,-19,3,-3,5,-7,27,28,4
-1,2,-3,-1,-4,-3,-3,34,4
2,5,-6,2,3,-2,-24,4,4
10,-3,2,2,-3,7,45,6,4
8,18,11,-1,-4,0,-21,-5,4
-5,-5,10,0,6,-1,8,-62,4
3,11,4,0,8,-2,-10,-1,4
0,-8,-3,0,3,-3,17,9,4
-7,-2,-6,0,4,-1,-51,-8,4
-18,6,0,-2,13,-1,2,-33,4
-19,0,6,-1,4,0,-12,-52,4
12,0,-3,0,2,2,-27,-31,4
6,-4,-3,-2,1,1,26,18,4
