-19,-4,-2,-89,1,15,26,26,1
-29,38,-18,57,9,5,19,-1,1
-20,-81,-30,-75,1,16,30,-9,1
-41,-10,-39,56,-14,-21,-18,6,1
17,-32,9,-31,2,-13,6,84,1
-23,0,68,-14,-9,-8,-25,-72,1
-55,-9,-108,-9,-15,-26,-2,56,1
37,31,-9,-38,7,4,21,70,1
-47,-67,12,50,-9,-2,-9,-36,1
55,76,-16,26,7,9,36,-6,1
-15,72,59,25,-10,-22,-79,-14,1
-54,-90,-52,-36,-7,-3,52,27,1
37,70,39,-8,-9,-4,16,-31,1
8,15,23,3,5,9,45,79,1
42,79,21,27,19,40,127,-23,1
29,-71,-53,64,15,12,-54,43,1
-2,-33,-11,-77,-17,-41,-68,-32,1
-30,-58,-28,-26,-11,1,51,-26,1
25,12,10,37,4,6,-4,69,1
7,46,25,-44,2,9,28,-38,1
8,27,-12,-20,11,16,1,9,1
17,52,58,94,7,-2,-52,29,1
-31,-64,-54,69,0,-16,-73,-27,1
-21,-25,74,-32,-6,-4,21,-26,1
-25,-49,-76,-22,-7,-2,-18,11,1
21,-7,48,-48,2,-1,-3,-26,1
-1,97,8,74,18,20,-6,6,1
-58,-69,-2,26,-13,-3,18,-24,1
22,68,8,15,19,8,-13,-49,1
-11,-35,-34,-1,-1,-6,-32,-21,1
4,-2,-3,-66,-11,-14,-12,25,1
-13,44,69,17,-2,-15,-1,-119,1
25,31,3,46,-13,13,-25,-90,1
-19,-4,-29,-49,-3,9,-40,-12,1
-11,34,73,-16,11,5,15,8,1
22,-53,-112,-20,-7,-7,24,39,1
40,72,90,5,3,-6,62,29,1
-1,-6,22,85,-3,-4,-35,-12,1
8,-36,-41,-73,-24,-16,-18,-23,1
2,59,111,15,-2,8,15,3,1
-11,-56,-6,-79,10,10,-50,-7,1
21,54,-8,94,6,1,-19,-48,1
33,74,-7,-87,-15,-14,65,34,1
0,56,0,-3,5,12,-21,-23,1
-31,-33,-88,-40,1,0,14,-58,1
-12,-41,65,22,-15,-14,-12,-29,1
29,15,-2,-13,22,13,23,-13,1
3,64,-2,-7,-4,-6,16,43,1
-22,-18,2,7,-4,-8,-33,-11,1
-2,-5,-36,-32,-11,-9,24,13,1
-34,-68,-12,52,-8,-5,-15,-19,1
8,4,-30,-23,3,7,-17,-10,1
6,13,58,39,9,-3,-7,75,1
10,-23,-7,14,-5,6,58,-24,1
-23,-26,-38,-41,-7,-2,-61,-28,1
-1,-8,-19,-35,-1,-13,-13,-10,1
-12,-34,-44,80,-5,-4,-42,9,1
-43,49,34,-114,5,-1,42,67,1
-41,-51,28,102,1,3,38,-22,1
-13,-58,52,-31,-12,-5,16,-29,1
6,-30,-17,37,11,6,10,25,1
24,31,-87,0,4,5,3,82,1
21,34,119,4,18,19,13,-35,1
-10,-30,-90,-3,-2,-2,-12,-18,1
20,-76,34,-27,-13,-13,12,27,1
-11,-41,-2,-3,0,10,46,-54,1
21,-3,-19,-5,2,0,-36,19,1
-5,0,29,47,-1,-6,-40,-2,1
32,30,3,-30,-3,13,15,24,1
4,0,-56,-13,1,-1,-4,-39,1
23,-11,18,8,3,12,55,1,1
24,73,-43,10,-22,-29,-71,-9,1
-59,-26,6,55,-4,-4,-17,17,1
-16,-61,-27,-55,-2,-4,-18,1,1
8,37,-19,27,5,3,41,1,1
27,-4,33,-41,22,25,51,48,1
2,106,45,85,-8,-16,-18,-20,1
28,37,104,-30,2,-1,1,11,1
-54,-85,-128,-95,-11,-1,-31,-49,1
51,7,116,51,3,6,17,-1,1
-2,24,-55,-43,14,7,24,-19,1
-8,-13,-8,-24,-11,-7,-37,8,1
8,16,20,10,-5,-5,-6,-50,1
-2,21,-8,24,16,12,-3,-4,1
14,-10,44,-16,1,12,77,-27,1
18,6,6,38,7,-15,-54,60,1
-7,-36,-21,-28,-18,-9,67,5,1
-17,-24,-45,73,-7,-4,-23,24,1
5,54,9,-75,-5,-10,-65,3,1
3,-16,15,80,1,5,40,-39,1
7,67,30,-41,10,6,16,14,1
11,-83,-68,76,-10,-11,12,-16,1
6,-12,-70,-74,-3,0,35,-7,1
-41,34,5,-41,-8,-9,3,43,1
0,4,-1,25,3,-6,-65,13,1
-24,-7,38,-35,9,4,-5,-39,1
-17,-47,-32,-48,-8,-7,58,8,1
18,9,-11,9,-16,-20,-92,-2,1
-1,-13,30,9,-3,0,-11,32,1
-6,14,-11,-49,1,1,16,64,1
5,2,32,20,2,8,21,21,1
8,5,25,-24,14,14,26,-17,1
-27,9,-24,21,-5,-10,-38,-24,1
21,76,3,15,11,11,23,-85,1
10,-46,63,-9,-12,-2,25,-32,1
-6,-21,-24,15,-3,-7,-54,-25,1
8,38,-16,17,-4,4,-7,-3,1
-8,24,44,50,3,6,16,29,1
-14,-69,13,-52,3,-3,2,22,1
2,24,-14,42,-4,2,29,-3,1
-3,-1,25,-38,-15,-18,-34,4,1
-20,3,-22,23,0,-5,-21,0,1
13,14,48,-10,7,6,-24,-28,1
19,13,-8,3,7,15,68,-11,1
-23,-36,-20,1,-4,-11,-50,-7,1
1,-13,-11,-25,-3,3,29,21,1
-8,12,-9,41,3,-4,-50,-14,1
-2,-14,-19,-70,-3,2,26,-18,1
10,28,45,120,8,5,33,9,1
2,-43,-76,-128,-14,-10,-33,-29,1
10,57,21,-18,-6,-5,-17,5,1
-38,-35,12,-12,2,2,22,29,1
-14,-9,-56,53,6,-3,6,-61,1
-16,-17,21,-43,-3,-7,-80,-2,1
-12,-46,-65,83,-4,-4,-18,26,1
30,16,17,-28,4,4,14,-38,1
-19,-46,25,-23,6,23,109,37,1
22,45,-14,32,1,-15,-51,8,1
-8,21,25,-32,-13,-13,-2,5,1
2,-5,-46,55,0,-1,-72,-8,1
10,-24,76,-30,-7,-4,26,31,1
13,37,6,14,6,17,80,-5,1
5,12,3,3,7,7,7,-12,1
17,7,-17,-7,-1,-3,-2,13,1
-8,-7,5,-8,-10,-9,-18,-9,1
9,-1,-13,-36,9,5,-1,7,1
24,39,-13,12,6,5,2,-3,1
33,4,56,40,4,4,61,-9,1
3,85,-20,-26,-2,-12,-81,-35,1
-5,-80,10,0,-6,1,-23,1,1
-28,-1,17,1,7,12,59,-35,1
-76,-47,-24,-5,2,-4,-63,-15,1
52,37,80,1,8,13,83,16,1
-1,14,18,74,-2,-8,-21,-8,1
20,-8,-36,-40,-6,2,13,-14,1
22,14,37,-6,2,5,13,-10,1
-18,-54,-85,-13,-3,-8,-22,8,1
-13,8,58,19,10,7,15,14,1
28,77,-51,-14,-3,-3,6,6,1
-11,-74,8,36,-10,-6,67,-21,1
-3,-48,-3,-37,-10,-8,-89,10,1
-21,-14,-13,-16,-11,-17,13,-34,1
-14,-9,13,4,9,1,-33,8,1
-5,14,-1,-7,2,1,13,-15,1
6,3,-1,17,0,-4,28,11,1
7,3,10,17,-1,12,23,20,1
-4,-11,0,-12,1,-1,-19,6,1
-12,41,-20,-30,-12,-16,-27,45,1
14,18,44,11,7,13,31,-1,1
-1,-16,-66,-15,-4,-6,-5,10,1
1,15,36,20,-8,-3,-1,46,1
14,38,8,17,4,4,9,-27,1
-3,-33,-42,-36,0,4,0,42,1
-2,21,26,5,3,6,36,-7,1
-32,-81,-17,13,-3,-7,35,-26,1
1,-10,-8,-57,-8,-9,-98,-10,1
-2,7,-2,21,0,0,57,12,1
12,-5,-13,-15,-1,5,-33,6,1
-20,-28,7,22,-8,-19,47,-6,1
-23,-37,-7,-19,-12,-2,-41,0,1
12,59,29,86,2,2,-30,-25,1
10,47,-7,-13,13,16,51,6,1
31,-27,-4,23,5,10,42,5,1
24,64,23,-36,-5,-18,-43,-4,1
-37,-31,3,67,-6,-13,-95,-3,1
34,76,27,-17,5,5,24,2,1
-12,-31,-28,-13,2,2,-28,-15,1
7,-32,-1,12,14,18,90,16,1
14,-9,-17,-29,4,5,-9,-22,1
-19,-47,4,4,-5,-19,-22,-4,1
-10,7,6,-8,-14,-13,-36,-67,1
20,3,-1,19,9,16,30,-60,1
-2,-22,-13,-40,6,7,-27,-23,1
-7,15,6,6,-9,-1,38,4,1
3,-37,-2,0,4,12,33,25,1
22,61,-3,12,-11,-19,-33,38,1
-21,-38,-14,-30,-8,-10,-50,24,1
-16,-17,-6,-3,-6,-11,-28,-2,1
13,40,-5,-11,-1,6,-3,24,1
-9,-17,-36,-16,4,5,34,16,1
-21,-50,-2,-30,-15,-10,12,-2,1
8,-19,-17,36,5,1,-1,14,1
-6,15,66,0,4,3,-20,10,1
-10,-40,-33,12,1,3,9,-2,1
26,42,28,49,7,1,10,-6,1
-23,21,-12,-11,-4,-1,3,-9,1
32,12,2,-15,-12,-9,15,8,1
-1,-23,9,4,8,3,-71,12,1
1,-4,-7,-12,-6,-8,5,4,1
-7,-28,22,9,2,3,3,24,1
-10,15,-28,-1,3,4,-7,29,1
30,21,18,-5,-1,5,92,-44,1
14,22,-1,-37,0,-1,-38,-21,1
-1,-17,28,2,-6,0,0,-36,1
-8,-8,-28,-14,8,7,11,1,1
5,54,20,75,11,13,23,-35,1
-10,-13,-6,-43,-6,-5,43,5,1
-17,-2,-49,-26,-6,-7,-10,2,1
-6,7,21,29,-4,-3,-45,8,1
-6,7,59,3,-3,1,9,25,1
-6,-2,-84,-11,-7,1,59,-6,1
9,-13,5,-33,-2,1,69,4,1
-4,4,12,31,11,-5,-82,-20,1
-15,-32,9,-30,-3,-5,14,12,1
18,22,13,13,2,13,6,2,1
-8,-11,-15,12,5,2,3,-17,1
-12,-57,-10,5,2,5,34,-2,1
-15,-19,-14,-22,-3,-7,-10,13,1
10,30,75,-18,3,6,-2,5,1
2,-52,-94,12,-4,-3,10,-1,1
5,58,37,-6,-3,-5,-34,5,1
-15,-34,-31,-12,-11,-16,-33,41,1
-3,-12,5,-6,0,-4,44,55,1
7,17,25,-3,-2,-6,-31,30,1
-16,1,-19,7,-8,-10,-38,-24,1
-7,-29,-32,-20,-6,1,37,-15,1
-17,17,12,8,4,0,-85,-22,1
26,42,30,-18,-11,-2,51,-26,1
-1,-9,-20,49,-4,-14,-39,-15,1
-3,14,21,11,8,9,29,-2,1
2,10,-24,10,-3,0,14,5,1
0,8,0,-5,1,6,8,-3,1
10,1,0,2,3,4,-1,-8,1
6,18,20,-6,2,-2,-29,-9,1
-9,-31,12,-15,-2,-4,13,-2,1
-2,0,12,56,7,2,-12,-12,1
6,4,19,-58,0,6,45,4,1
1,-48,-29,29,1,1,-13,-5,1
10,-14,-37,-18,0,2,29,-9,1
-12,12,29,16,9,3,-30,-6,1
-26,-60,8,-13,-3,-9,-23,-31,1
-4,1,2,-4,-1,0,-50,-55,1
9,7,-4,-8,-2,1,18,2,1
-14,-35,3,-15,-10,-9,0,-27,1
20,25,1,60,3,5,22,15,1
-5,17,0,-42,4,4,24,-4,1
6,-22,-11,-6,-4,-2,19,13,1
12,31,-6,-8,3,5,-4,13,1
-15,-46,-29,1,-9,-8,-9,8,1
1,3,-14,0,-6,-3,16,35,1
-7,37,-34,-23,2,4,12,13,1
-5,-10,23,28,-5,-6,-15,13,1
-2,6,-9,-10,1,5,33,1,1
2,-18,-27,-20,-1,-1,-20,-1,1
-16,-5,22,-16,8,5,12,-22,1
-7,-20,2,37,2,1,-11,6,1
4,12,0,-27,0,1,2,8,1
12,46,22,7,-5,-3,12,27,1
13,-4,-17,2,2,5,4,-25,1
-15,-25,5,-9,8,-1,-7,24,1
2,-44,23,36,-6,-10,12,16,1
1,3,0,-7,4,0,16,19,1
-10,-49,-25,3,-4,-3,9,-19,1
17,30,19,-5,-3,3,7,-72,1
-4,25,-12,-10,10,15,33,-58,1
2,-15,6,5,-5,-10,-57,-14,1
9,34,39,8,-1,-1,18,11,1
-5,-20,-43,-6,-2,-3,-48,4,1
12,47,5,-14,-6,-5,20,21,1
0,6,1,5,-2,2,20,-8,1
-25,15,31,23,-9,-13,-49,4,1
6,-6,20,-21,1,0,23,16,1
4,-54,-74,-8,2,7,-9,-18,1
-17,-21,-14,23,-2,-3,-11,-3,1
9,21,-3,-1,-4,-2,9,-2,1
0,9,19,42,2,-4,-61,4,1
5,48,40,-21,-6,-8,-17,10,1
0,-17,0,1,0,0,6,-6,1
0,-12,-20,-9,-3,-1,32,7,1
-5,10,-3,3,0,-3,-54,21,1
-7,-43,-20,-33,-1,-1,-26,-12,1
3,10,-18,28,-2,-1,14,52,1
1,-3,18,-5,-5,-3,29,-29,1
-14,6,-38,-10,8,7,2,34,1
-9,17,21,1,-1,3,-12,18,1
-3,3,12,-1,-1,-6,13,-21,1
-7,-34,-12,7,1,2,-10,-12,1
12,20,8,-40,-3,0,34,7,1
-20,-65,-20,37,-3,-2,26,0,1
0,26,25,30,4,4,25,1,1
20,49,-8,-43,-5,-20,-65,5,1
-2,-27,-9,-31,-3,3,42,-9,1
8,14,28,30,3,2,15,-2,1
1,-20,-40,-6,2,7,20,-11,1
7,-21,-10,28,5,6,-16,12,1
-3,-4,-65,-21,-7,-8,4,-5,1
10,32,53,-8,0,-1,-10,2,1
8,20,-11,11,-1,-2,-21,8,1
0,17,6,-21,3,5,-10,-20,1
-13,-47,-12,-11,-8,-2,11,-4,1
-5,11,-10,6,6,7,33,37,1
4,9,21,-17,-3,-4,19,-28,1
3,44,-6,24,-7,-9,-61,4,1
-2,28,16,-29,-3,-1,12,-36,1
12,18,-16,-24,-9,-7,37,-3,1
-21,17,22,-19,-10,-13,-35,45,1
1,18,7,47,8,13,65,-39,1
-12,-33,3,-32,-4,-3,6,4,1
-7,15,0,0,-5,-12,-48,2,1
-3,-23,-31,-14,-4,-1,11,-14,1
-5,-42,32,-20,5,4,4,15,1
8,46,35,17,-3,-7,-33,12,1
-9,-8,-57,1,0,2,28,-16,1
8,-8,11,-36,0,2,2,1,1
-1,-27,-24,34,0,-1,29,25,1
-5,-24,6,-31,-6,-6,-64,-15,1
13,13,30,36,3,4,3,7,1
-23,-51,34,-9,4,2,-10,-24,1
29,89,-1,-54,6,6,33,20,1
9,-13,-77,88,-8,-4,22,2,1
-15,-2,-30,-2,-1,-7,-31,9,1
-1,-13,-34,-16,-7,-1,22,-1,1
0,-19,25,-20,-1,-5,-68,12,1
-5,10,59,2,9,1,31,54,1
3,5,-31,10,2,5,3,-16,1
27,33,11,35,-3,-5,-30,1,1
-10,-27,-4,0,0,-3,-51,23,1
3,6,2,-3,0,2,31,4,1
-4,0,18,-1,0,-2,-18,-17,1
-6,2,38,-11,6,5,20,-3,1
-9,-51,-55,-10,-6,-7,-10,-24,1
9,54,8,20,-1,-4,-26,-20,1
4,22,27,-26,-11,-12,4,3,1
8,26,-3,8,5,12,19,5,1
-9,28,25,40,-2,-1,27,-14,1
-3,-12,-20,11,0,1,0,-23,1
-7,-12,-14,-27,-3,1,-3,1,1
-4,-5,27,8,-4,-6,-13,7,1
-3,4,-1,-7,3,3,12,-11,1
-8,-4,-5,-12,-3,3,10,-8,1
11,-14,13,45,4,3,-15,9,1
-6,9,-10,-22,-6,-2,21,-18,1
-4,4,27,24,-9,-15,-35,18,1
-9,-35,-27,-8,1,-7,19,12,1
-4,-7,17,-12,4,7,-16,9,1
11,29,-33,13,6,6,5,7,1
-3,-34,-33,4,1,3,31,-6,1
10,22,23,-10,-4,0,-12,23,1
3,18,5,13,3,2,0,12,1
-3,0,20,0,-1,-8,-31,-1,1
3,-6,-4,-7,0,9,17,6,1
-8,-28,-4,-5,3,5,1,-13,1
3,19,-4,-26,-3,-4,3,-7,1
-2,-13,17,2,0,-1,-1,-5,1
2,5,12,-17,-1,2,16,-11,1
-11,-43,12,26,-4,-7,-19,-34,1
6,-2,-57,11,-8,-6,9,-10,1
-37,-56,-7,-35,-8,-5,-23,-1,1
21,36,9,-12,-5,2,33,-1,1
13,33,25,6,4,1,-37,-10,1
-12,-14,31,40,-3,0,21,9,1
-10,-19,-28,-11,-6,-3,7,-6,1
-10,-5,-3,7,-3,-3,5,-6,1
2,-17,21,-15,-1,4,17,-5,1
-27,-37,-45,-25,-1,-4,-11,3,1
15,27,-5,28,2,0,22,22,1
11,-14,-9,-12,-2,-2,-29,77,1
3,1,-47,-5,-4,0,32,-25,1
-21,-4,25,-9,5,1,-12,2,1
13,25,18,8,-1,-2,-31,0,1
-7,-1,3,2,-2,-1,10,-9,1
6,17,11,-7,-4,-4,-16,15,1
10,-32,1,2,-2,1,19,-3,1
-10,-18,-20,-15,-2,1,9,0,1
-2,-11,-8,15,2,-5,-24,2,1
-8,2,-5,-2,-5,-1,48,6,1
14,23,35,-3,1,-4,-64,-1,1
6,27,0,-2,3,4,31,3,1
-16,-29,-23,-10,-2,0,4,-9,1
-9,-41,-19,8,4,2,19,-2,1
4,-31,-53,29,4,8,11,30,1
6,-28,37,9,8,0,10,-3,1
-8,1,-5,-66,-11,-8,-22,-7,1
5,0,20,32,4,7,0,-18,1
20,95,27,-12,-1,-1,1,-33,1
-7,-19,3,-2,-1,-1,20,-1,1
-10,3,0,16,3,4,1,-25,1
-9,1,-12,-27,-1,-7,-9,3,1
16,5,17,-16,-3,2,6,17,1
-7,-21,-18,5,-7,-1,-11,-6,1
-7,-9,-10,12,4,4,63,-15,1
12,16,2,-12,-1,2,-34,4,1
-6,-21,-6,0,0,-5,-4,-9,1
1,4,-5,5,-5,0,0,4,1
3,-4,23,14,-1,1,-5,11,1
1,-1,-4,16,7,4,-10,14,1
8,24,0,-27,-2,0,22,6,1
-5,45,30,-19,-8,-8,-44,-13,1
4,13,-4,22,2,-4,1,0,1
12,46,27,-15,-7,1,27,20,1
-11,4,-1,-5,-6,-8,-12,-13,1
2,-8,-1,-15,1,3,6,6,1
4,21,-40,20,4,2,-3,-1,1
-7,-20,-29,-21,-9,-7,-2,48,1
-15,-24,6,7,-2,-2,11,7,1
7,14,-23,11,0,-1,-2,0,1
-4,-22,28,-6,-2,-1,-18,5,1
-13,-20,-10,0,-2,0,44,17,1
-6,-13,-5,-10,4,0,-6,-21,1
4,16,14,22,0,1,-3,9,1
6,16,7,-17,4,1,-13,-16,1
-3,-21,-18,-10,4,9,45,-18,1
-3,8,13,-4,-7,-6,-68,-4,1
4,-16,-4,-1,3,-2,-3,-28,1
-4,-11,-7,-29,-6,-3,9,-4,1
-6,-12,-16,4,-1,1,-6,-9,1
1,-22,-47,-29,-5,-1,15,4,1
-11,-10,-19,-2,-1,-2,-7,0,1
-13,-15,6,12,-9,-6,-13,2,1
-12,-44,42,1,-1,-5,-27,-9,1
2,4,43,-18,1,3,23,0,1
10,-24,-81,35,1,3,9,5,1
-13,-20,-13,-22,-3,5,29,7,1
1,17,12,30,-3,-11,-55,-6,1
0,4,17,8,-3,-3,-2,69,1
1,2,21,-7,-2,-2,-10,5,1
2,-21,-2,36,10,2,-26,0,1
8,38,8,-17,1,0,-29,-7,1
-6,-9,-9,4,3,-4,-8,-26,1
6,24,14,-7,-1,-1,1,10,1
30,39,45,11,2,5,15,46,1
12,56,-19,33,-8,-9,-5,-7,1
-3,-13,4,38,0,-1,18,-31,1
-23,-37,-25,-38,-2,-2,-15,5,1
-4,-9,-13,-9,-10,-11,-11,-24,1
12,24,32,5,1,7,9,4,1
-8,-17,-38,-6,-1,0,1,-7,1
9,7,-17,-6,1,-4,16,-2,1
-4,-3,4,41,5,3,-7,16,1
-10,4,8,-45,1,8,44,6,1
13,10,15,-19,-1,1,-39,0,1
-8,18,8,-9,-3,-10,7,4,1
-7,-26,-19,49,-1,-1,30,-21,1
-13,-61,-11,-37,-4,-1,-12,-27,1
13,38,-9,15,2,4,85,-31,1
16,63,46,-20,-4,-1,-51,-3,1
-8,37,-40,-2,2,-2,-11,11,1
11,19,33,-5,0,1,18,10,1
-21,-51,-48,-39,-6,-6,-18,24,1
-5,-22,-10,8,-4,-4,16,-27,1
3,7,30,-11,5,6,21,-16,1
-7,-23,-17,8,0,-6,-69,36,1
-1,-14,1,-1,3,8,46,-1,1
1,1,7,21,-1,-6,-95,8,1
-2,-15,-6,-23,2,8,51,2,1
9,21,29,23,4,2,28,-14,1
1,-7,-10,0,-2,-2,-16,3,1
-5,-21,-22,5,2,6,64,6,1
-5,-18,3,-3,-4,-11,-57,-17,1
2,-3,-27,-14,4,-2,11,4,1
5,7,-13,-23,-4,-1,-5,-9,1
-7,-50,-6,52,4,7,66,-8,1
14,10,15,-73,-10,-4,20,16,1
3,13,13,2,-2,-4,-9,-3,1
-5,-17,-25,17,5,0,2,4,1
19,23,17,-6,0,1,21,-9,1
-7,-7,22,25,10,11,30,13,1
0,-6,-17,6,-5,-11,-33,1,1
2,10,16,9,1,-2,11,-1,1
-2,9,19,-1,0,-2,5,7,1
0,-4,-36,-15,-3,0,-34,-23,1
4,4,-27,1,1,9,102,32,1
-5,8,28,18,1,-8,-60,30,1
-1,14,2,-10,2,4,-21,3,1
13,12,56,70,0,-2,3,-5,1
-18,-25,-33,-34,-2,0,-4,-22,1
1,-19,21,10,4,5,35,-10,1
-4,-13,66,-38,-4,-1,12,2,1
7,16,-82,-3,4,-2,-19,10,1
-15,-15,0,17,-9,-5,-2,-2,1
9,-6,-25,6,0,-2,-10,-4,1
-5,6,-14,-69,-10,-11,-61,14,1
-8,-12,33,26,1,1,-7,11,1
6,29,32,28,13,5,-6,17,1
3,15,6,-38,-8,2,9,-6,1
-14,-14,-45,34,7,2,18,-4,1
13,60,4,-22,-4,-6,-8,-13,1
4,9,8,11,-2,1,-5,-2,1
5,14,28,-6,-1,2,-7,0,1
6,18,28,6,6,6,22,34,1
5,-12,-29,-3,-8,-4,-18,-3,1
-4,-12,-45,-4,-2,-4,7,-12,1
-15,16,22,-12,-2,-3,-2,4,1
-8,6,8,29,-10,-6,6,-13,1
-10,-17,14,-42,4,2,11,-4,1
21,80,12,8,1,-3,-85,24,1
-4,-2,9,-2,2,3,8,2,1
-18,-56,-20,5,-3,-10,-32,-7,1
-8,-14,14,-5,-5,-5,-20,1,1
0,-19,6,25,2,-2,-27,-25,1
12,0,27,25,0,5,29,12,1
12,31,-9,26,3,4,3,-11,1
-12,-80,-97,-24,-4,-4,33,-10,1
-3,-25,17,-12,-2,-2,30,-2,1
-2,17,23,48,-2,-10,-20,-6,1
-1,-17,13,-27,-6,-2,5,-11,1
10,10,6,7,2,6,-6,39,1
9,-38,-19,-10,4,8,57,-1,1
-19,2,-11,-24,-4,-5,10,-13,1
5,-15,-31,-4,-3,-4,-31,-11,1
-12,-15,-4,10,1,1,16,-7,1
-6,-12,24,3,1,-2,-25,-18,1
23,22,22,31,0,-3,-2,-19,1
11,1,-17,-3,6,9,13,30,1
-13,1,-39,-18,-5,-5,-17,-7,1
-7,-12,28,1,0,5,28,-5,1
15,-2,-17,-34,-2,1,-22,-15,1
0,27,14,29,0,-2,-4,-1,1
9,49,36,18,3,3,27,-4,1
-8,-24,-27,-24,-2,0,-30,4,1
-9,-12,-15,-25,-2,-3,64,14,1
-7,-12,-3,-59,-3,-3,-35,-10,1
-19,1,40,46,-9,-8,-26,-2,1
21,30,22,19,9,9,15,14,1
0,6,-42,-18,-2,0,9,4,1
3,0,5,-6,2,1,13,-31,1
13,4,16,1,3,3,-4,-15,1
-19,-13,11,43,-6,-11,-6,-17,1
-20,-83,-39,0,-4,-1,-17,2,1
13,13,-13,12,0,6,26,-11,1
12,19,30,-17,2,-5,-12,3,1
0,11,-2,-21,-4,-1,33,23,1
-34,-40,7,-23,-1,-10,-99,0,1
-5,47,-5,29,1,0,4,-4,1
-8,-37,-7,-46,-4,1,-19,-7,1
0,-18,-12,-2,-4,-2,18,-12,1
-1,-7,19,-20,3,6,-30,-2,1
11,9,14,9,3,1,25,4,1
1,-5,-24,-8,-4,-4,-2,24,1
-8,11,0,-7,0,5,-8,-12,1
12,44,13,21,2,4,27,-1,1
-8,-65,-31,5,-1,3,2,-8,1
19,44,44,-1,6,2,1,-6,1
-9,-49,-26,-4,-8,-5,-28,-26,1
10,-21,13,-4,2,3,30,11,1
-13,-29,2,9,-8,-5,10,4,1
-7,-15,-33,-1,1,3,56,16,1
0,-8,-15,-20,-2,-8,-84,15,1
5,30,2,-10,-3,-7,-1,-9,1
0,-4,2,9,1,5,78,27,1
-5,-4,33,3,-4,0,-37,3,1
5,32,-12,-5,-2,-3,26,10,1
-12,-25,-29,48,-6,-6,9,3,1
8,8,18,8,0,0,-17,5,1
2,-8,-19,-24,1,1,23,-1,1
7,30,18,-5,-2,4,35,18,1
-16,-23,-46,-1,-2,-1,-22,-14,1
3,3,-9,2,-1,-7,-19,52,1
-5,-15,8,29,2,6,14,-6,1
6,-7,12,-20,3,0,-10,1,1
-3,34,-5,-17,-4,2,11,34,1
-6,-15,10,9,-3,0,9,-5,1
-7,-15,-47,-22,-5,-11,-79,21,1
7,-13,6,-25,0,4,50,11,1
17,42,39,23,-2,0,9,7,1
-4,-28,-31,-29,0,1,-24,3,1
5,35,45,10,-4,-7,-15,-5,1
-6,-20,-36,23,0,5,25,-9,1
5,3,15,6,5,4,6,-17,1
11,27,7,0,1,5,24,-5,1
5,4,0,-5,3,1,21,-12,1
-6,35,-13,-11,-3,-2,-8,3,1
0,-23,-9,-2,1,1,10,-27,1
-4,1,13,-8,-7,-9,-62,-9,1
1,8,16,23,1,3,15,0,1
-3,-34,-35,23,3,-3,-38,1,1
-1,51,11,-24,-11,-2,-13,4,1
5,42,-18,-15,1,1,14,-12,1
-9,-17,4,-7,1,-3,-5,-5,1
11,-5,-4,8,1,2,8,11,1
0,-2,-13,6,-1,4,-6,18,1
-15,-8,10,16,-3,-4,11,-6,1
8,14,3,-15,-5,1,22,-4,1
-7,19,33,8,1,-6,-16,-7,1
4,4,0,-17,1,1,12,10,1
-4,-10,-21,12,3,-3,-3,-31,1
-13,-51,-48,4,-4,-4,-15,-4,1
-13,-3,15,3,-8,-10,28,10,1
6,31,17,-6,3,-1,-69,0,1
32,36,43,0,9,10,46,-9,1
-5,28,7,11,2,0,-31,19,1
6,-20,-23,-25,-1,3,8,-12,1
3,13,15,-31,4,5,15,-2,1
-5,-21,-25,-10,-9,-11,-79,-24,1
-3,22,-9,9,1,1,17,-10,1
5,5,23,17,3,5,11,3,1
-8,-43,-31,12,1,-4,-5,-3,1
-1,2,7,9,1,2,-1,17,1
-13,-45,-21,-13,0,4,24,0,1
8,3,12,-7,-7,-1,7,8,1
15,35,0,12,9,10,21,14,1
-21,-28,-8,-19,-5,-17,-87,-22,1
-3,-5,18,26,-5,-5,11,-20,1
19,50,8,40,6,7,44,-7,1
-14,-47,0,-19,0,3,31,-17,1
0,-3,12,-11,-2,3,27,12,1
10,5,-12,-9,-3,-5,8,-27,1
-14,14,31,18,2,-3,-59,-13,1
13,-17,-35,-6,-7,-5,3,24,1
-6,17,-10,-9,-4,3,2,2,1
9,33,28,13,-2,-1,48,43,1
-18,-54,-24,-47,-9,-11,-50,-27,1
-8,-24,21,29,6,2,30,-12,1
0,-7,-5,4,-2,-3,-30,11,1
3,0,0,11,-1,-1,-10,3,1
4,35,34,11,0,5,8,1,1
-5,7,-14,7,-3,-7,-39,-10,1
11,6,2,-7,-2,-2,30,-1,1
-19,-29,2,34,5,3,-11,-2,1
7,10,-12,-41,-4,-6,-1,1,1
-6,1,17,21,-6,0,19,-10,1
5,9,-5,-31,0,2,-9,21,1
0,18,11,8,-3,-4,-30,4,1
7,4,-53,-13,-1,-3,37,3,1
-4,-43,-23,0,-5,-3,0,16,1
0,53,8,42,4,5,19,-8,1
-20,-82,-10,-54,-5,3,30,23,1
-15,6,22,16,4,1,-40,-10,1
11,20,10,-4,-1,-3,-14,5,1
-8,-19,19,28,7,7,27,4,1
12,25,-12,-7,0,3,11,-17,1
2,15,18,-15,-1,2,27,14,1
0,8,-21,-5,-3,-6,15,1,1
-2,-16,-17,2,-1,0,-21,3,1
4,18,9,-20,-4,-6,-15,-5,1
-2,-11,-5,-24,1,1,12,2,1
3,18,-2,82,5,-6,-14,-8,1
-6,-31,31,-26,-3,-2,-32,-1,1
11,14,-20,13,9,8,8,3,1
-11,-26,-49,-12,-13,-13,-3,1,1
-6,-24,4,-23,2,7,35,24,1
12,28,-15,-4,6,4,24,-3,1
-16,-28,9,-6,-5,-12,-70,-5,1
5,36,21,5,1,4,-1,0,1
5,-11,19,17,2,8,2,-5,1
-4,-14,-19,-5,-5,-8,24,1,1
16,29,36,13,4,5,7,10,1
-7,-20,-84,-25,-2,-4,-17,-5,1
-7,9,12,30,-3,0,-4,-14,1
3,-1,2,10,-3,-3,-6,-9,1
-9,-16,15,5,2,3,23,-9,1
0,-34,15,25,0,4,57,0,1
13,41,16,-39,-3,-13,-104,5,1
0,29,4,-13,2,4,38,-8,1
-7,-3,-16,19,1,-2,13,-16,1
-2,-16,13,8,-4,-1,-20,1,1
6,39,9,-36,3,7,36,-8,1
3,-1,28,22,4,2,4,15,1
-7,-12,-39,-30,-8,-12,-36,-21,1
-3,25,36,12,1,6,22,3,1
9,22,33,20,7,2,-9,-3,1
-21,-68,-68,2,2,-3,1,33,1
4,-9,-6,-10,2,9,45,12,1
-2,-14,-17,2,0,-4,-25,1,1
-4,-6,4,1,-6,-7,-38,4,1
13,24,32,10,3,7,14,6,1
-7,-38,-4,-29,-1,-1,2,-1,1
9,52,16,1,1,0,-6,10,1
-7,-16,-22,5,-2,1,58,-4,1
-5,-3,-4,-32,-9,-12,-43,-6,1
8,23,16,-1,2,2,-17,12,1
8,19,11,3,8,6,12,1,1
11,38,13,-5,0,-1,6,16,1
11,21,-22,1,-6,1,7,-12,1
-11,-7,-21,-3,3,-5,24,39,1
-12,9,54,19,-6,-11,-61,3,1
3,-31,-9,-32,3,3,42,1,1
-2,-37,-8,30,0,-1,-2,-4,1
10,10,-17,-12,-7,3,27,-13,1
-3,0,-5,0,-2,-1,20,-2,1
-5,3,15,-2,2,-1,-40,-1,1
-13,1,18,-19,5,-1,14,7,1
7,53,-40,27,2,2,5,-21,1
4,-43,-24,-17,2,3,2,11,1
4,8,2,-3,-4,0,3,-10,1
-12,-42,-3,-7,-4,-2,7,10,1
7,11,17,7,-1,-6,-75,-5,1
-2,-8,-14,-3,2,2,-4,-11,1
-7,11,23,6,-1,-2,20,-2,1
4,37,-24,27,2,3,4,-40,1
-19,-10,3,0,-4,-5,-42,11,1
21,46,-21,-45,-11,-4,22,2,1
-3,-7,-12,16,-1,-1,30,-6,1
14,-14,7,-37,-2,-5,-44,7,1
-11,6,4,-12,-7,-7,2,-5,1
-10,-22,-27,8,0,-3,-16,-1,1
-4,-19,-14,10,1,6,21,-2,1
-10,-2,0,-18,-2,3,22,23,1
2,-19,6,13,-2,1,15,-3,1
3,-22,8,-36,-1,0,60,14,1
-7,-15,-7,13,-6,-17,-114,1,1
-5,-14,-17,1,-2,-3,17,6,1
3,7,49,13,5,6,32,0,1
7,26,30,13,3,5,8,-6,1
-5,-16,-64,-15,-1,2,21,3,1
-3,-12,14,10,1,2,-10,-13,1
1,-40,20,-19,2,3,-7,-4,1
-13,-14,-14,-42,-7,-5,-19,0,1
-4,3,9,-2,-2,-1,5,-5,1
-3,12,10,13,-1,-4,-12,-3,1
-16,-60,-26,-10,-3,-2,6,-11,1
-1,-22,23,21,4,4,16,-10,1
-10,1,-17,-34,-8,-6,-29,-13,1
-12,-41,-10,-63,-3,0,24,11,1
19,34,10,67,5,4,-9,4,1
-6,25,63,8,-1,-3,-3,-3,1
-13,-29,-83,0,-3,2,36,-10,1
19,24,9,-4,-4,0,-15,-3,1
5,36,9,-1,3,-3,-49,-50,1
1,-50,-47,24,5,5,-23,-24,1
-8,-10,34,-12,-6,-6,-7,-11,1
-4,75,50,15,-9,-4,-5,-3,1
5,-3,-18,-41,-2,2,33,11,1
9,-9,-10,26,2,-1,-25,2,1
3,-14,13,-5,-1,1,-18,-3,1
-1,-7,-16,12,4,-5,49,0,1
1,53,17,2,-5,-3,-33,27,1
8,33,46,-37,0,3,-8,1,1
-3,24,-28,1,-1,-3,5,6,1
-12,-58,-34,4,-1,-1,15,4,1
10,6,4,-3,4,4,15,8,1
-13,-21,-17,-26,-5,-8,-3,-21,1
11,11,47,50,-1,2,42,24,1
-1,21,15,-22,-1,-7,-102,-12,1
1,-12,-20,-15,-1,-3,4,-9,1
-13,-33,-32,24,1,0,18,5,1
-5,-1,35,-4,3,3,5,1,1
1,-6,-22,8,0,0,-9,-6,1
-9,-10,28,14,-1,-4,18,5,1
3,26,-3,7,-4,-4,-16,22,1
-13,-57,-53,-56,-7,-4,-8,-13,1
5,-2,-5,36,5,2,24,-14,1
-39,-93,-6,14,-4,0,-16,-11,1
19,63,24,9,2,2,77,-11,1
3,5,16,-3,4,-1,-31,10,1
3,-2,-1,2,-2,2,6,7,1
3,-5,-2,-8,-5,-3,-4,-14,1
-11,-53,-37,2,-1,0,-18,7,1
2,-5,1,4,-2,-1,16,3,1
-6,27,60,15,4,0,32,4,1
8,9,-67,-24,0,3,12,14,1
-11,6,30,38,-2,-6,-3,18,1
18,73,47,3,4,4,9,6,1
4,-1,-41,1,-3,1,-9,-9,1
3,10,29,2,0,-2,9,27,1
-7,-10,-18,11,-3,-4,-23,-5,1
12,10,35,15,3,1,7,8,1
8,4,7,-11,3,5,18,18,1
-11,-14,-15,10,-6,-5,12,-15,1
9,27,-19,-31,-6,-9,-57,-16,1
-5,-28,-23,-1,-1,4,23,-14,1
-1,6,-1,0,-1,5,32,9,1
0,1,-12,-22,1,-4,-9,-2,1
-1,-4,12,7,1,-1,45,16,1
-5,2,-8,-8,-6,-5,-24,-20,1
0,-7,-10,1,-2,3,35,21,1
7,14,13,5,-2,0,-36,-6,1
2,5,2,6,5,3,0,4,1
4,-15,-13,-14,-1,-3,12,5,1
-2,1,2,44,2,0,-9,-19,1
7,54,6,-49,-1,1,30,7,1
-6,-9,-11,-8,-8,-7,-39,-16,1
-2,-19,-52,-32,1,5,35,-11,1
-5,-18,23,-18,-2,-8,-12,22,1
2,-2,-16,7,-1,-2,-10,-5,1
-3,-14,28,7,2,5,26,-5,1
1,1,7,22,7,-1,-49,3,1
-5,-9,-7,-1,-6,-3,14,2,1
3,14,9,-6,-6,-10,-48,-32,1
-3,2,-9,-5,-1,1,6,-2,1
1,20,9,23,-1,4,9,-2,1
-3,-11,1,27,4,6,26,-5,1
1,5,25,-23,-1,-4,-21,7,1
11,16,6,16,7,3,-46,10,1
-11,-27,-74,3,-5,0,40,6,1
7,35,14,-44,-1,-3,-55,-14,1
4,17,-22,29,0,-6,-46,-3,1
-22,-47,8,-5,1,3,12,3,1
-7,-15,35,40,-2,-6,-15,-3,1
7,4,-27,-18,-4,-3,-6,5,1
6,1,-10,18,-2,5,33,-5,1
6,6,2,-67,-1,1,3,6,1
4,50,26,-3,0,-4,-6,1,1
-1,10,14,-7,-5,-10,-61,-18,1
-10,-19,-13,4,0,7,49,0,1
-3,-17,-58,18,-3,-4,-76,-10,1
3,1,10,-7,-2,2,13,8,1
-9,-12,2,-1,-4,-2,9,-3,1
10,4,28,15,7,6,40,10,1
-9,9,-28,-5,-1,-1,-1,-11,1
1,-16,15,5,-1,1,12,7,1
-20,-32,-13,3,-4,-5,-4,2,1
18,62,27,0,2,2,-9,-3,1
10,-44,-4,15,0,-5,41,9,1
-17,7,19,-7,-4,-12,-91,-11,1
1,-35,-1,22,7,9,68,-3,1
2,-22,-7,-20,-6,-3,5,1,1
13,47,-8,40,-1,-2,-6,35,1
-14,-13,5,18,0,-3,15,-9,1
-2,-50,-23,-16,3,2,-4,10,1
-15,-18,-2,-15,4,5,-6,-12,1
8,18,9,-1,0,3,8,-4,1
6,-10,0,-8,-2,-3,-42,-2,1
-2,9,-28,1,-2,0,-7,1,1
-12,-73,-20,-4,1,-1,21,13,1
5,1,16,-1,-7,0,9,-3,1
-3,22,12,0,-2,2,1,5,1
-12,3,0,-9,-6,-8,-19,-15,1
3,15,-5,17,2,3,26,12,1
-3,-8,32,-50,0,2,26,-3,1
4,-34,-74,46,-4,-1,-35,-4,1
20,36,8,3,-1,-7,-13,25,1
-24,-70,8,1,0,-5,3,-3,1
0,-6,-20,19,0,3,2,-12,1
2,0,15,-47,2,2,44,-3,1
3,26,7,-1,1,1,-31,9,1
5,6,2,15,1,-3,2,12,1
8,30,18,7,-1,1,23,4,1
-5,-12,-8,-23,-2,-6,-60,11,1
1,11,-5,27,1,1,17,0,1
2,5,-11,-21,0,10,34,10,1
-6,-8,-1,5,-1,-7,-22,-6,1
9,13,-33,-12,-1,0,15,7,1
-2,19,32,-12,0,0,-18,-6,1
9,11,-8,0,-8,-4,-5,-2,1
-25,-20,18,54,5,3,9,-8,1
5,38,3,-38,-3,1,13,-4,1
4,-16,-5,-7,3,2,29,6,1
-1,16,-10,-16,-10,-12,-76,-14,1
7,34,20,7,-1,-6,-7,-11,1
-9,-18,-25,20,4,6,53,71,1
-3,5,-11,-11,-13,-10,-57,-10,1
8,26,12,13,6,9,21,5,1
0,-14,-13,-33,-3,-7,0,5,1
11,27,11,0,-3,-3,-9,-3,1
0,2,5,5,2,8,46,7,1
-2,-19,-16,6,0,1,4,15,1
-3,5,7,-16,-1,2,-7,10,1
0,1,-14,1,-5,-1,18,-12,1
-6,-31,-18,-5,2,1,29,2,1
-4,16,41,-9,-2,-2,-2,-5,1
-1,-8,-4,30,5,7,19,15,1
6,-8,52,-6,2,1,0,-8,1
0,-26,-86,7,-1,3,10,5,1
8,33,11,-23,-9,-11,-77,10,1
-8,-48,-43,13,-2,-2,-15,6,1
-6,4,20,-55,-5,0,25,-17,1
-1,15,39,20,2,-1,4,8,1
-3,-16,-34,17,6,7,41,1,1
2,7,-10,4,-3,2,3,11,1
0,-22,15,38,0,-7,-62,10,1
1,-5,18,-35,-6,-2,17,-33,1
-6,-3,2,3,0,3,42,0,1
6,15,-9,-2,0,-2,-32,-3,1
-7,-6,-4,12,2,4,30,-7,1
-4,2,4,-7,-1,-5,-21,-7,1
15,12,72,36,7,3,-17,27,1
0,-9,-38,-27,-3,2,10,-3,1
2,14,-14,8,-2,-4,21,4,1
1,-8,-4,-10,3,4,-6,7,1
-2,38,15,25,1,-3,34,-22,1
-3,12,90,52,5,-1,1,2,1
1,-6,-22,-42,2,0,-8,7,1
2,45,32,51,4,5,10,8,1
-5,-15,-3,-19,4,2,13,-2,1
8,-4,-36,28,6,7,-2,-19,1
6,0,21,12,-3,-8,-56,-14,1
10,30,5,-2,1,-2,-38,7,1
-1,-23,-24,-12,-9,-9,-1,7,1
-19,5,9,-19,-1,-2,-16,-3,1
3,-5,15,6,6,8,6,10,1
3,-10,-17,-4,-5,0,34,-6,1
2,-10,-59,-18,-6,-5,-64,8,1
-6,-6,-4,-28,-6,-11,9,-20,1
-1,1,2,33,-1,1,37,-2,1
1,14,42,-27,-1,1,-36,3,1
-15,-19,-58,-19,-2,2,23,-15,1
-4,0,-15,63,-5,-3,14,-3,1
-12,-12,7,-20,-4,-5,-54,-21,1
9,34,5,10,0,0,-3,-1,1
7,29,47,-14,-1,-2,11,3,1
3,-13,-52,10,-3,-1,-8,-4,1
0,9,5,-4,4,10,60,10,1
-11,-20,24,3,1,-4,-28,10,1
-11,-18,-19,10,-6,-9,-30,-19,1
10,12,0,-5,-3,-1,11,10,1
-4,-6,1,-16,1,-1,-23,-11,1
5,-15,-6,1,0,6,36,5,1
-17,-55,-56,-3,-5,-4,13,10,1
6,46,35,-29,-2,-3,-15,12,1
-14,-27,17,6,-6,-4,20,-6,1
-2,-10,-36,-19,-3,-9,-12,-28,1
-15,-26,42,-7,2,-2,-3,-10,1
3,-23,-14,10,5,5,14,2,1
0,5,-3,-18,3,4,61,-16,1
-9,-2,-4,-44,-3,-8,-64,18,1
10,24,-5,13,-2,1,11,-3,1
-2,-12,7,-28,-3,3,18,-8,1
2,-5,-15,10,3,7,16,-13,1
1,-9,0,76,4,-1,-26,-9,1
7,26,27,10,4,3,40,-8,1
2,-2,-25,-34,-3,-5,-40,14,1
-5,-52,-1,0,-6,-2,-11,13,1
-13,20,-1,-16,-6,-10,-62,-16,1
17,0,23,0,5,10,21,16,1
-6,-6,4,-11,-1,1,-5,-5,1
4,11,-7,0,1,1,13,16,1
-25,-54,-19,-34,-5,-9,-5,-18,1
16,35,36,40,-5,-3,-19,-25,1
2,1,-71,-12,-4,0,0,-4,1
4,-11,-9,14,0,-4,10,39,1
1,5,19,-48,2,7,36,10,1
-9,-19,-24,5,1,1,17,34,1
-15,-37,0,-15,-5,-14,-31,3,1
10,29,-10,15,-1,4,-9,-1,1
12,-24,-7,15,-2,-1,45,3,1
-10,-3,-3,-36,-2,-4,-68,5,1
-2,15,29,0,1,7,46,5,1
-1,-16,-9,-9,-7,-12,-47,-9,1
9,24,56,12,0,4,54,11,1
-1,16,-32,32,5,0,-40,-2,1
-9,-25,-10,-53,-4,-2,16,-4,1
-5,18,21,11,-2,-1,-26,-6,1
14,26,6,26,4,5,6,2,1
-17,-38,-54,-15,-9,-6,18,1,1
11,-1,20,20,0,-2,-11,14,1
-7,1,-22,-64,2,-1,14,-18,1
-5,-30,-13,20,2,2,-5,-13,1
-1,-1,20,5,1,-1,-37,11,1
-4,15,27,27,2,-2,-19,1,1
13,25,3,-12,2,3,4,20,1
5,3,13,15,-4,-7,-20,0,1
2,5,-16,-1,6,8,17,-19,1
-1,-1,27,-5,-1,3,3,-3,1
-6,-11,-54,13,-7,-14,-83,-7,1
-6,2,-14,-13,-3,0,26,3,1
-4,-8,12,-9,-4,-4,-3,6,1
-5,11,26,-10,-7,-5,20,-8,1
0,31,20,18,4,8,39,-10,1
8,22,-14,-16,0,-1,2,-7,1
2,17,-9,-22,0,2,-1,-5,1
4,24,6,-5,4,4,-4,6,1
-8,-3,11,60,6,1,-14,-22,1
-3,-4,4,-23,-10,-6,2,-11,1
0,12,-28,-5,-5,-3,26,-1,1
2,-3,-26,-13,1,0,-11,-1,1
5,-2,2,-16,0,4,41,19,1
-16,-9,7,37,-2,-8,-87,2,1
7,42,44,-8,3,6,66,-3,1
1,-17,14,7,-1,-2,-46,-3,1
3,7,1,-6,6,6,33,2,1
-8,-13,-24,0,-3,-3,17,0,1
2,-12,-2,-14,-4,-2,-10,-4,1
3,48,90,19,3,0,7,18,1
6,-16,-41,0,1,3,8,5,1
-12,-13,-19,-18,0,0,21,8,1
-6,-29,-4,11,-1,-1,-15,-3,1
-16,-45,-19,-6,-8,-15,-2,6,1
1,28,47,5,0,-2,-23,16,1
-1,-45,-30,-6,2,0,8,-8,1
2,1,-16,-13,-2,2,75,1,1
9,17,-1,17,5,1,-39,-6,1
-3,11,22,-34,-5,-1,23,8,1
3,-6,-27,49,2,4,26,4,1
0,3,28,7,3,0,0,-7,1
-9,-11,1,-38,0,4,17,-11,1
-5,-30,-39,0,-4,0,14,-8,1
3,31,30,-11,5,4,4,2,1
8,-8,22,12,-6,-9,2,-6,1
-2,-43,-45,16,4,2,34,-2,1
-5,-14,5,-2,-7,-5,-12,-2,1
2,6,4,-12,0,6,12,5,1
-9,-2,6,13,5,-3,-33,-2,1
-3,19,7,-18,-4,-3,11,-10,1
13,23,9,23,-5,-2,-24,9,1
-4,-19,7,-22,-4,-1,-5,3,1
-11,52,-29,10,1,2,-6,-1,1
17,-12,-80,-23,-4,5,28,-3,1
9,49,39,16,2,-1,15,3,1
7,23,25,0,0,-2,2,1,1
-5,-29,-28,-15,-4,-4,-21,2,1
4,9,12,11,2,9,36,12,1
-2,9,0,-1,-2,-9,-43,-5,1
-11,-11,8,-11,-3,-1,-3,1,1
7,-6,10,5,1,4,-11,-4,1
-2,7,-3,-21,-1,-3,24,8,1
4,15,10,18,2,6,5,8,1
6,15,4,28,3,-3,-14,9,1
5,-27,-6,-66,-4,-1,-16,-7,1
-10,6,-5,20,0,4,3,24,1
11,8,-9,-28,-2,-2,-7,9,1
5,14,-60,-25,-2,0,7,14,1
-9,-21,-21,-28,-7,-6,8,23,1
-15,-62,16,88,6,0,-20,-3,1
16,25,30,-1,5,0,3,2,1
5,52,38,-11,-4,-2,19,3,1
2,-19,-2,8,4,-7,-47,-10,1
-4,1,1,-18,-1,0,-20,5,1
-26,-57,-28,11,-4,-4,7,-3,1
9,2,-7,18,0,4,41,8,1
11,31,15,-8,4,4,19,9,1
0,-3,2,-18,-10,-15,-67,-12,1
7,-6,-7,-7,2,8,52,-2,1
-13,-24,-3,-10,-1,-7,-21,-8,1
-3,-2,3,-13,0,2,14,2,1
10,56,12,30,1,1,14,-6,1
-27,-59,-34,-40,-7,-7,-24,-5,1
-2,27,-23,-9,-7,-1,-10,6,1
0,-1,22,7,-3,-2,-25,6,1
5,11,-65,-29,-1,2,19,-9,1
-8,19,18,-17,-6,-3,-13,-3,1
9,3,16,1,3,1,9,20,1
0,-11,15,39,-2,-1,-4,-14,1
-1,14,16,4,1,3,41,-7,1
0,-1,3,-20,-3,-5,-8,-11,1
-18,-20,11,-20,1,4,-6,6,1
9,4,-21,33,3,6,42,14,1
8,1,11,-24,-2,-5,-52,-10,1
2,17,-11,31,-2,-3,11,-6,1
12,-22,-1,-5,0,-1,-2,-9,1
-15,25,-3,5,-3,-1,36,-1,1
0,-23,9,2,-2,-2,-11,4,1
6,18,50,17,4,8,21,2,1
1,-49,-68,-29,1,3,4,-17,1
-12,-4,-26,-12,-6,-7,3,-4,1
8,-6,6,22,5,3,-11,-2,1
1,0,25,21,0,-5,-10,2,1
-18,-22,30,16,6,2,30,-21,1
0,-24,-8,4,2,4,-18,-9,1
9,-3,-39,-18,-2,-4,6,-2,1
-17,1,-5,-3,-2,-3,-7,13,1
11,36,10,1,-5,1,-6,-8,1
6,-8,7,-16,5,1,-64,13,1
-8,7,27,11,-2,-5,-16,-3,1
7,-13,-21,-8,3,6,26,-7,1
-7,-9,-7,-1,-1,0,12,6,1
-1,3,18,11,-1,-7,-42,-6,1
5,22,14,0,-3,-3,9,23,1
-3,-35,-31,-1,0,0,-23,0,1
1,3,-2,5,0,0,-13,3,1
-7,-16,-11,-40,0,1,34,1,1
-6,1,40,34,0,3,33,1,1
4,5,-17,-8,4,-1,-7,-2,1
-15,-62,-27,37,0,-1,-14,-3,1
11,62,1,-15,-2,-3,17,5,1
-8,-10,-12,-27,-6,-1,-2,-1,1
-3,-19,9,-7,-2,-1,-2,6,1
12,27,27,5,2,0,4,6,1
2,-3,-8,19,1,1,0,-1,1
-11,-13,11,-11,1,-3,-12,-8,1
9,22,1,8,-1,2,-7,-7,1
2,27,-12,-8,-6,-8,-54,-8,1
-1,-10,13,13,-2,0,22,2,1
2,10,-6,5,3,0,-13,-17,1
17,17,8,-8,6,7,0,-6,1
-18,-17,-9,41,-6,-6,13,-6,1
13,39,27,10,3,4,13,7,1
-2,3,-34,14,-4,1,21,-15,1
-2,4,8,-68,-4,-1,16,-2,1
2,5,16,24,0,-6,-82,-1,1
-1,-1,-17,4,3,2,20,-4,1
-9,11,20,-1,2,4,17,25,1
-14,-18,-37,21,1,3,1,3,1
11,-9,-12,-12,-3,1,28,-1,1
-30,-39,24,-11,-8,-8,-12,-20,1
24,23,-5,-6,5,6,7,-14,1
-13,-8,17,8,-2,-5,-2,4,1
11,8,10,-17,1,2,2,8,1
5,16,-17,17,-1,0,20,-12,1
-6,-14,7,-1,-2,-1,-8,-1,1
9,16,5,-10,-3,-6,-13,5,1
1,9,2,-19,-6,-10,-52,2,1
1,3,-3,29,3,8,27,10,1
-10,-8,19,31,-5,-5,-22,5,1
19,19,-13,21,2,6,15,3,1
-4,9,-70,-60,-4,2,19,7,1
-8,-66,-28,75,-1,-1,-20,13,1
-14,-10,-6,-100,-5,-4,2,-11,1
-1,35,32,47,-2,-3,-5,8,1
0,-8,15,6,2,1,27,-5,1
4,-18,-4,2,-6,-5,-24,5,1
4,10,-14,-12,-4,0,1,0,1
-13,0,-22,-29,-1,-1,-7,-8,1
-9,-27,-8,12,3,0,9,-14,1
4,6,-9,-52,0,-3,-7,-14,1
9,-7,20,24,0,-5,-14,44,1
-7,-13,8,-4,-1,-2,-25,-1,1
1,13,41,13,-1,0,18,1,1
-3,1,-25,-24,-1,2,15,-16,1
1,-9,7,8,1,-1,-15,7,1
11,10,-48,-9,-4,-2,-34,0,1
-4,-16,-6,10,-3,-10,-27,2,1
-27,-46,23,-6,-6,-4,-10,1,1
-7,-53,-22,-23,0,2,11,3,1
-11,-36,11,2,-3,0,28,-15,1
7,40,24,3,4,5,12,5,1
11,46,17,16,-1,-5,-11,8,1
-8,-48,-18,11,1,1,10,-4,1
-7,-25,-17,-19,-1,0,6,-5,1
-1,6,43,4,-2,0,12,6,1
11,16,-13,-14,7,4,-5,-6,1
-7,23,-15,-4,-1,1,4,-11,1
12,22,8,2,-7,-7,-3,9,1
3,-16,-38,-2,1,2,1,-4,1
2,24,40,-28,-1,-2,-8,9,1
-7,35,9,22,-7,-7,-1,-12,1
-3,-20,6,-20,-2,-1,-12,-3,1
-2,3,8,2,-1,0,-11,-8,1
10,9,4,20,3,2,24,-5,1
2,0,-12,10,3,-1,-2,3,1
-30,-63,15,-28,3,1,0,14,1
0,-15,-9,3,0,-3,4,-5,1
-10,-42,-22,0,-2,1,30,7,1
-1,-19,-14,15,1,-1,-24,-4,1
-3,-5,14,-6,-4,-5,-17,-12,1
-12,-16,4,-40,1,2,3,8,1
-18,-3,23,30,-3,-4,-23,-2,1
19,-33,-48,-21,0,2,36,17,1
7,9,6,31,2,1,1,2,1
-4,5,2,11,4,6,12,10,1
1,11,23,0,-1,-4,-16,-13,1
7,45,31,1,0,2,3,-6,1
3,-15,-23,18,2,1,5,-2,1
9,-4,1,16,-3,-1,5,7,1
-1,-38,-51,-24,0,4,-14,8,1
-5,-3,5,-1,0,-4,-16,-12,1
3,14,35,19,0,-1,7,2,1
-4,13,12,0,0,4,-2,-22,1
-9,-21,-11,12,-10,-6,0,4,1
1,-11,-30,-55,-2,-3,-10,-1,1
0,7,36,19,3,1,25,-8,1
5,29,-11,23,-3,-7,-17,-7,1
0,21,4,-4,2,-2,12,30,1
0,49,18,13,3,4,-14,-30,1
5,2,-17,-8,-4,0,20,-23,1
4,2,1,-9,-1,0,5,50,1
0,16,12,-12,1,-1,0,27,1
-9,0,-1,8,-6,-4,27,-10,1
2,-1,-8,1,5,9,14,-9,1
-5,11,-7,-12,-5,-6,3,-14,1
11,24,5,5,0,2,7,-3,1
8,16,23,5,1,6,18,22,1
-9,11,-2,13,-8,-12,-60,14,1
-2,-14,-17,3,-6,-6,17,0,1
5,28,14,-38,0,3,-15,-4,1
5,-2,7,5,2,3,16,9,1
3,8,-49,-34,-2,0,-1,1,1
3,-5,3,-7,-5,-3,-14,-13,1
4,17,-1,25,6,-2,-20,-10,1
7,36,11,-12,-2,-1,18,2,1
-3,-19,-26,-11,-5,-3,2,-3,1
2,-12,27,-8,5,5,-20,10,1
-9,-18,-3,11,1,2,15,-12,1
0,-32,-26,10,-6,-5,6,4,1
13,5,8,13,2,-1,15,-12,1
-7,-5,-12,-7,3,-1,-35,-8,1
-3,-28,2,6,-3,-1,12,-3,1
-13,-9,1,8,-1,-4,-16,-7,1
6,-2,22,2,-1,3,18,29,1
14,33,2,7,3,6,18,-15,1
0,0,-6,-4,-2,-3,-3,-10,1
-5,-24,-18,-2,1,0,-13,-4,1
-1,14,19,-1,-7,-3,20,-8,1
8,11,16,4,4,7,28,-4,1
3,5,-27,-22,-1,-2,20,0,1
-13,-34,0,10,-6,-7,-38,-11,1
-10,-23,-25,15,-1,-8,-26,1,1
-4,13,14,-51,-4,0,32,15,1
8,5,4,-11,-4,-1,-3,-18,1
6,33,31,41,3,8,66,-3,1
9,3,7,-3,1,-1,-26,9,1
-11,-5,-14,-18,-2,-4,-27,0,1
4,-10,-6,-6,-1,-2,-15,-7,1
1,9,5,-36,2,3,-15,23,1
-4,-5,33,15,5,5,-6,-12,1
5,1,10,13,3,3,4,-16,1
-7,-12,-78,6,-3,-2,-9,10,1
-6,-27,28,0,-1,-2,0,-6,1
-7,-23,-60,-5,-3,-1,-13,-7,1
-4,-25,8,10,4,5,-1,37,1
-13,-17,30,18,-2,-6,-8,-5,1
1,-7,0,-18,-3,-1,-29,4,1
0,16,-2,-8,0,-8,3,-1,1
1,37,10,3,0,2,15,-7,1
3,-11,8,10,-5,-1,-19,-1,1
11,5,-14,12,1,5,51,3,1
-5,10,15,10,-4,-3,-52,-3,1
1,-5,-15,4,-1,-3,17,-5,1
-13,-34,-9,-12,4,4,10,7,1
6,66,15,41,0,-8,-8,0,1
4,10,35,-15,1,7,49,38,1
-8,-28,-13,35,-3,-8,-19,-14,1
4,-1,-27,-43,-2,1,-25,8,1
-1,-21,-19,-21,-3,-1,-12,28,1
-4,-12,3,-14,-3,2,40,-5,1
-2,-3,4,26,3,3,-9,4,1
2,-5,26,-11,5,0,-4,-2,1
-5,-13,5,19,0,1,-1,-18,1
12,64,8,-5,3,3,-2,0,1
-4,-23,-6,-3,-2,2,22,-6,1
12,27,16,5,-1,-1,1,5,1
-3,-9,-6,-17,0,-2,-34,-9,1
0,2,-7,7,-1,-4,17,-4,1
-1,-25,-13,-8,0,-2,-19,5,1
-4,13,10,0,2,-3,-14,-8,1
-4,5,73,6,-3,-3,0,-9,1
1,-3,-74,-14,0,1,-14,-20,1
11,26,-18,-37,-3,-5,1,4,1
2,-2,10,10,-4,-2,17,5,1
11,-7,-3,43,8,5,3,13,1
-13,-11,17,-59,-3,-5,3,-2,1
-25,-57,-16,15,-5,-6,-7,-7,1
-2,-16,-9,-22,3,6,11,-4,1
-2,28,-10,-14,-3,-3,-11,10,1
-8,10,14,20,1,0,-2,9,1
5,-12,-5,-1,-4,-1,20,6,1
4,14,19,11,1,2,-15,2,1
-9,-5,-8,-21,0,-1,4,-5,1
-6,-20,-22,13,-1,-2,1,3,1
-3,18,15,1,-4,-5,-3,-7,1
1,7,15,16,-2,1,8,3,1
6,-5,-7,-32,-5,0,19,2,1
-5,-13,8,31,3,3,-3,-8,1
11,16,-21,53,3,1,-14,4,1
1,54,-12,37,2,-5,7,4,1
1,-15,-12,-51,0,-1,1,5,1
10,28,19,1,-4,-1,-2,5,1
14,33,30,-7,-2,1,-5,4,1
-1,-15,-6,4,-1,-1,-8,0,1
-1,-2,-36,18,-3,-3,6,-9,1
-1,18,24,-3,5,3,-22,8,1
-4,-6,-23,-16,-2,-7,-53,-9,1
-8,-15,15,-36,-9,-8,23,-12,1
-1,-6,-6,-5,1,3,-7,-15,1
4,-18,-3,-4,-8,-3,13,1,1
-8,-26,6,-23,-1,2,9,4,1
5,10,4,4,4,2,-19,-14,1
-3,-18,-54,31,-2,-8,-1,0,1
-5,16,15,-41,0,4,14,-7,1
18,3,-3,-5,2,5,10,0,1
-6,2,29,60,2,-7,-31,-14,1
-6,-7,-2,-20,-4,1,68,12,1
-9,-29,-26,34,-4,-7,-52,-9,1
-11,-8,-8,-7,-2,-1,16,-4,1
-5,-18,6,-12,0,4,16,-3,1
12,47,19,-17,9,8,-10,16,1
-9,-47,-32,4,-8,-10,-10,-27,1
-9,20,9,-1,-1,-6,-1,-4,1
19,22,-6,0,0,0,-1,14,1
-19,-30,-15,1,-7,-5,-25,-12,1
6,9,18,2,4,5,8,11,1
5,-25,7,24,-1,-2,7,7,1
8,31,-23,-37,-2,2,12,-9,1
2,-9,13,6,-3,-5,-35,3,1
-2,1,-28,-32,-1,-1,-16,-4,1
-4,-17,-1,-15,-3,1,51,-4,1
-11,-22,-11,28,-1,0,18,16,1
6,3,6,-14,-1,0,-7,1,1
4,-12,-1,13,-1,0,9,-4,1
-2,14,16,-2,2,4,28,-1,1
-6,-17,-25,-23,-4,-1,-9,-4,1
-8,-8,-5,10,0,-3,-73,-15,1
12,32,49,12,0,0,33,21,1
-4,-16,-24,-8,0,2,0,3,1
-9,-32,-40,3,-1,-1,17,-1,1
5,9,23,1,5,6,-3,3,1
-9,-33,-11,-5,-6,-6,-15,-2,1
-1,27,-17,-5,-2,-7,-22,-5,1
3,3,15,-3,-4,2,0,5,1
-12,-14,-11,14,-4,0,9,-18,1
2,26,45,2,-1,0,5,2,1
-15,-32,-17,-42,-1,-3,-7,-6,1
-7,-11,-10,18,-1,-7,9,-16,1
1,-4,13,-46,-4,0,4,17,1
17,6,-12,30,0,-1,-13,11,1
-2,-27,-7,-35,0,2,3,-6,1
-2,-11,3,6,1,0,-26,-1,1
-4,-8,15,18,-5,-6,-5,-4,1
-4,-7,-7,-5,3,3,32,-1,1
4,36,-12,-2,-5,-2,-13,3,1
8,29,39,-7,3,3,20,10,1
2,3,-26,8,0,-3,-11,-9,1
-17,-36,-19,-2,-3,-5,-13,-6,1
9,23,26,24,1,-2,-6,-3,1
-8,-6,-20,-12,-1,0,7,5,1
7,6,-75,-14,-3,2,2,11,1
7,22,83,0,-2,-1,29,-14,1
11,-23,-104,-2,4,4,-39,11,1
-27,-66,93,-13,-4,-6,29,-21,1
-5,-11,105,25,-4,-2,-52,3,1
-5,13,-76,41,11,3,-17,-6,1
4,2,10,7,4,5,33,15,1
12,42,20,-2,6,4,16,13,1
1,-19,-82,-14,-4,0,24,2,1
2,-13,-30,4,-6,-3,-24,8,1
-12,24,38,-4,-6,-4,2,-7,1
5,4,-23,-4,-1,2,7,13,1
2,23,-6,6,5,4,25,6,1
6,6,15,-10,-1,-2,6,7,1
0,12,11,9,-2,-2,12,5,1
11,4,-5,-9,1,1,-33,13,1
6,37,12,-9,-3,-3,37,-8,1
-1,58,-12,-10,-6,-14,-47,14,1
11,50,23,-6,3,6,26,-4,1
2,3,-7,30,-3,1,41,-7,1
-2,-27,18,-10,0,-5,-21,17,1
-6,-25,-2,3,-2,4,-1,14,1
-6,-3,-12,-9,-4,-4,-17,-14,1
-1,-5,-23,-20,0,-1,-8,1,1
-10,-18,-32,-1,1,0,-9,-14,1
8,2,28,-30,0,5,21,5,1
-5,-19,14,52,1,-1,-16,-1,1
-3,1,-4,-13,-4,2,22,-13,1
-2,-4,15,-9,-3,-1,0,-11,1
-14,-20,7,13,1,-4,-1,-12,1
4,4,2,12,-2,-1,8,1,1
-6,-15,-29,-33,-2,-2,-7,-12,1
-7,-12,15,7,1,-2,5,6,1
8,4,-8,13,-2,4,6,3,1
-6,-19,-17,-26,-3,-1,20,3,1
-9,-19,-9,11,-3,-6,-59,-12,1
7,30,27,20,7,2,16,4,1
-21,-47,-4,-4,2,3,-1,-10,1
-8,-21,-23,6,-1,-1,50,1,1
-2,-17,11,-31,-8,-6,-49,15,1
2,19,-54,53,4,2,-2,11,1
-3,3,39,-37,-3,-2,42,-5,1
0,9,22,-18,-2,3,1,7,1
18,38,8,24,2,-1,-3,12,1
-7,3,17,-18,-3,-2,-39,-3,1
5,-14,-3,12,2,0,-10,-5,1
2,-8,-2,-15,-5,-1,26,-4,1
1,2,-24,2,4,-1,-56,16,1
4,0,20,-9,-8,-4,48,8,1
-8,5,-13,-3,-3,-4,-3,-9,1
2,29,46,12,-1,-4,-3,-2,1
3,-18,3,31,-1,0,-1,-13,1
1,-6,8,-31,2,4,14,-20,1
5,3,-37,34,-1,-1,0,0,1
1,20,-8,-12,0,-5,-33,1,1
-9,-12,8,7,-4,-1,12,0,1
-11,-18,-7,-5,1,-1,-9,-6,1
7,11,5,-19,-2,2,28,2,1
-8,-20,-22,3,-3,-8,-73,-14,1
-11,-11,-4,2,-3,1,6,-17,1
9,18,25,-7,-5,-2,39,-5,1
-2,-3,0,-2,2,2,0,27,1
-2,27,12,8,-1,-1,32,-14,1
-7,-7,-2,-3,0,-3,-25,-2,1
-6,-11,-11,3,4,4,-1,-12,1
5,5,-11,-10,-3,4,23,-16,1
-3,-8,-7,9,4,-1,-14,-6,1
12,36,37,2,4,3,11,13,1
-1,-18,-48,-6,0,2,-9,5,1
0,25,43,3,-1,-1,-6,13,1
0,-35,-40,-9,-4,-1,23,9,1
-4,7,-19,-36,-3,-2,7,-13,1
6,36,11,31,-1,-6,-13,3,1
2,9,6,-31,2,4,6,-5,1
-5,-58,37,8,1,4,-19,1,1
3,8,-24,-8,-4,-9,5,-7,1
0,-3,23,2,-1,4,4,12,1
0,13,-17,36,-2,-5,-83,-8,1
-3,-12,0,-93,-5,0,35,-3,1
2,-7,-10,29,-3,-3,41,-3,1
-9,-8,-7,-6,-2,-5,8,-6,1
3,1,6,-11,1,1,21,-6,1
5,22,34,14,1,2,-23,0,1
-1,18,-20,-14,-3,1,7,1,1
6,8,-12,-23,-2,1,7,37,1
-8,-24,-20,4,0,-4,-6,-3,1
6,11,4,12,1,0,-4,9,1
4,-10,26,28,1,-1,-3,1,1
4,-1,9,-1,-2,-5,-3,15,1
-3,-10,-18,-16,-3,0,40,0,1
10,36,18,15,4,0,-31,13,1
3,-4,2,36,1,0,-19,11,1
-4,-7,-5,6,3,3,-36,-8,1
1,-12,3,-19,-2,0,-15,4,1
2,13,-12,9,4,5,23,23,1
1,3,-16,-20,5,7,19,9,1
-1,-3,9,8,0,-1,10,-11,1
0,-1,-4,4,2,2,4,2,1
-4,-5,8,20,-2,-2,-4,-3,1
-3,9,-20,-20,-3,0,-13,-10,1
-2,-3,-7,-3,-4,-3,26,-1,1
12,22,-9,11,2,1,31,19,1
-24,-43,-2,2,-4,-14,-122,-14,1
-3,-16,0,23,2,3,53,-3,1
5,12,9,25,1,4,20,-13,1
10,1,-6,-15,-4,0,39,-17,1
-1,10,35,17,-1,1,15,5,1
1,41,-1,-6,4,1,17,-15,1
-10,-24,-27,-15,-8,-12,-67,15,1
-3,-22,-29,-24,6,4,-15,-14,1
2,-39,-76,2,-5,-2,15,14,1
-7,-14,14,-9,-4,-1,-19,0,1
3,-6,-4,-6,3,3,23,-11,1
-5,3,22,17,-3,1,-1,2,1
-1,19,12,-9,-4,-5,-4,-28,1
2,-5,-16,-15,-1,-7,-58,11,1
4,-2,19,4,1,3,12,-11,1
-7,-3,6,7,3,-2,2,-10,1
3,-21,-12,6,2,2,-7,-16,1
1,3,15,-4,-2,1,-3,0,1
-12,-16,12,-29,-5,-5,9,-1,1
5,-3,13,22,-4,-1,-13,8,1
4,11,-3,-23,-1,4,35,3,1
-6,-41,-48,3,-3,-3,-8,-9,1
-2,-27,-27,0,1,1,-10,3,1
1,18,22,6,2,1,-4,5,1
-1,25,16,1,-8,-2,28,-23,1
-11,-9,17,-34,-4,-6,-43,-7,1
-2,11,16,51,-3,1,14,-12,1
1,8,-10,-4,2,-1,-34,-4,1
12,5,11,17,4,4,20,19,1
0,10,15,-5,1,-1,-20,9,1
-1,22,-9,-14,0,-4,-17,6,1
2,9,22,6,-3,-2,-10,1,1
-1,18,-14,-16,2,3,-4,-3,1
-1,-18,-10,27,-6,-2,39,11,1
6,1,-16,-13,-3,-2,-3,9,1
-2,-1,-27,-9,-7,-7,-21,3,1
-9,-19,5,13,2,-5,-1,-8,1
7,31,5,5,3,1,-24,10,1
0,7,24,1,1,4,4,-15,1
4,13,19,-22,3,4,13,-3,1
5,-13,-71,-2,-4,-4,3,14,1
-4,-7,31,23,-5,-4,10,-13,1
1,-19,-22,-1,0,0,9,5,1
-5,-31,3,1,-3,-2,-5,-3,1
-9,-4,23,-12,-2,-3,11,13,1
0,-6,-12,-16,1,6,31,-8,1
2,1,3,0,1,-3,-56,4,1
-3,-22,-3,6,0,2,64,16,1
-5,13,-5,2,-3,-7,-99,7,1
-1,0,10,11,-3,-1,26,9,1
1,-2,11,-6,0,3,17,12,1
7,42,16,-1,2,0,-8,-5,1
-19,-35,-45,3,1,2,33,-5,1
-1,-33,-14,5,6,7,19,10,1
12,21,8,-17,-1,-1,-9,8,1
-3,-28,-5,2,-9,-8,-34,9,1
2,-8,-9,3,-2,2,31,6,1
0,2,-23,-32,1,0,4,12,1
-11,-20,5,-17,-5,-11,-16,-12,1
0,-3,-12,10,2,2,21,9,1
3,22,38,10,0,-1,-17,-11,1
10,-6,-4,-25,-1,7,31,-1,1
0,1,-2,12,-1,-1,30,0,1
-5,-12,-6,0,-3,-6,-29,-13,1
5,5,-2,-9,1,5,16,-4,1
-5,-3,14,1,-1,-4,37,3,1
1,54,72,4,-1,1,-17,-1,1
0,-27,-111,6,1,2,10,-6,1
0,-5,18,-20,-2,-3,20,8,1
2,16,14,14,6,-1,-18,5,1
1,3,40,51,7,3,-11,-3,1
4,23,32,-58,-2,2,6,2,1
-3,-11,2,30,1,1,3,-10,1
-2,2,-13,-26,-4,-6,-11,-3,1
0,9,-6,15,4,3,5,3,1
5,43,24,15,4,-1,-19,-17,1
5,-15,-20,2,-1,-1,3,17,1
1,37,34,-21,-2,-1,1,-11,1
-10,-77,-64,-6,5,4,13,-7,1
-16,-4,7,21,-8,-8,0,7,1
8,24,26,0,-3,-3,11,21,1
7,21,-3,6,3,5,-1,-3,1
-3,-27,-29,-34,-6,-1,43,-4,1
-13,-32,-13,6,0,-2,-44,-11,1
2,10,12,3,5,-3,-14,-28,1
-2,-8,-5,-19,-6,-3,27,-4,1
0,19,-20,-20,-2,2,25,-7,1
2,-15,-7,6,5,0,-11,7,1
-8,-17,10,9,2,3,3,-6,1
0,-13,-20,4,0,-1,-21,10,1
1,-7,-10,12,-5,-7,-29,-8,1
-1,-8,-8,-9,-4,-2,33,13,1
2,3,11,13,-1,2,-23,1,1
-8,-23,-32,-11,-2,-1,-24,-7,1
-2,18,25,1,-3,-2,71,7,1
13,38,6,-15,-1,1,-12,4,1
7,-7,16,-4,-4,-2,18,3,1
-14,-10,9,9,3,2,-7,2,1
1,3,-10,-8,-1,-2,-26,0,1
0,14,19,8,1,-3,-20,-1,1
1,-1,-12,-13,-2,1,13,-11,1
3,18,-6,11,0,-1,-3,-7,1
1,-1,-18,-5,-1,1,24,-3,1
-13,-25,5,-7,-7,-10,13,-9,1
1,5,0,15,0,-4,-38,1,1
3,3,25,12,0,1,19,2,1
0,11,15,-5,-1,-1,-22,-4,1
-2,0,-22,-12,2,3,-12,-3,1
-2,5,-17,-11,-1,-2,18,3,1
4,6,0,21,-7,-7,-8,3,1
-6,-9,31,-36,-3,0,-24,5,1
-3,15,-28,44,-2,1,-6,4,1
-7,-38,-5,2,-4,-3,2,-10,1
-3,-7,1,-29,2,-1,4,-7,1
-3,-1,14,4,-5,-12,-29,-3,1
-11,-75,-14,3,1,-1,17,-11,1
1,41,-9,-19,-1,3,-7,-6,1
-9,19,4,0,-3,-2,-8,-11,1
-1,-4,15,19,-1,2,9,-9,1
0,11,7,-8,6,2,-12,3,1
4,6,-20,-12,3,1,-12,-1,1
-2,-11,4,11,-6,-5,8,-9,1
3,14,12,-1,1,-3,-32,13,1
0,9,5,2,-3,4,7,-5,1
-2,11,3,-10,-1,-4,-30,-10,1
10,3,3,12,4,5,19,14,1
1,-5,-24,6,3,-2,1,8,1
4,3,16,-3,-2,-1,17,14,1
-3,-7,10,2,-2,-2,10,12,1
3,25,21,-1,0,2,-17,16,1
12,-4,-35,-40,-5,0,10,0,1
-4,4,13,7,-7,-3,1,-7,1
6,39,28,-34,-3,-2,10,24,1
-12,-81,-67,6,-6,-3,23,-18,1
-4,12,20,1,-2,-9,-63,4,1
10,6,-4,1,2,2,14,0,1
-1,0,18,-16,-1,-4,-15,14,1
6,12,24,35,4,1,-1,-8,1
-3,-24,-57,-5,1,7,27,-4,1
-7,-4,16,-6,-6,-4,-19,-14,1
2,3,-2,8,6,-1,-47,-4,1
-3,-1,-14,-17,0,-5,26,2,1
-5,-1,-2,18,0,-6,-48,-3,1
3,14,14,10,6,6,54,13,1
-3,-6,-16,1,-3,3,16,-17,1
1,9,17,1,1,0,-9,4,1
3,10,24,3,1,3,18,19,1
-8,-48,-15,-16,-1,-1,2,-10,1
-2,-4,-4,21,-6,-7,-7,-9,1
-8,-8,31,12,-4,-4,-2,2,1
4,-2,-38,-10,1,3,16,-5,1
2,36,4,24,-5,-5,-16,20,1
4,4,-5,-27,8,6,26,-15,1
14,44,-12,-6,0,1,7,-4,1
7,2,-3,-1,-9,-8,5,7,1
-5,-9,-5,-8,0,-8,-68,22,1
-6,5,38,43,6,4,-6,-27,1
8,13,-29,-15,0,8,6,12,1
1,0,26,7,1,1,11,-17,1
4,-7,-45,-9,-3,-1,30,-20,1
2,13,11,6,-3,-2,57,26,1
1,2,21,-9,3,1,-50,-5,1
-9,5,4,9,-2,-4,9,-10,1
-3,2,18,9,3,2,7,-10,1
7,-15,-11,31,-5,-4,-21,2,1
1,11,-1,0,-7,-6,-1,-6,1
-1,15,-6,-15,1,7,30,7,1
5,-6,-11,-5,-4,-2,-12,1,1
-8,-21,-25,-2,-3,-1,12,4,1
-9,-10,21,-23,-4,-8,-31,-1,1
1,12,0,11,0,3,0,4,1
8,24,39,0,5,3,-10,26,1
-6,-9,-4,-11,-3,-2,1,-3,1
-9,-35,-45,5,1,-5,-13,-2,1
-4,-3,5,2,2,4,29,5,1
-4,-6,-2,-3,0,1,29,0,1
-1,3,12,1,-5,-9,-45,-5,1
-8,-11,14,-1,2,4,20,-37,1
-9,-11,-18,7,-1,0,6,-27,1
2,-8,-13,-7,-1,1,51,8,1
-2,8,4,-25,0,1,-40,9,1
-3,-1,-5,14,-4,-10,-23,-11,1
-12,1,8,0,-6,-6,9,-9,1
3,-10,-13,11,0,6,15,-9,1
-5,16,6,-36,-7,0,20,4,1
8,8,13,2,0,4,25,22,1
5,8,-10,40,5,-4,-55,12,1
-3,-6,-24,-24,-3,-1,-11,-8,1
2,8,2,4,2,-1,12,15,1
-2,-3,-7,13,0,3,-7,7,1
0,9,30,-11,1,4,-5,-2,1
4,-9,-33,-1,-3,-2,-32,-11,1
-2,-47,-76,-2,-1,-1,38,12,1
4,8,21,8,-3,-2,-26,12,1
-6,-23,-1,-35,3,1,2,6,1
-9,17,22,18,5,5,5,-20,1
-9,-51,13,53,2,0,-24,-6,1
5,8,7,-18,-2,3,34,16,1
8,-14,-32,-10,-6,-3,25,29,1
-8,12,7,-22,-6,-15,-106,6,1
5,17,13,26,1,1,63,-2,1
-11,-14,-13,-11,1,0,-6,2,1
11,0,18,6,3,6,7,0,1
0,3,29,0,1,4,55,-1,1
-4,-18,-19,4,-1,1,-5,-5,1
-14,-23,-41,-25,-8,-8,-17,0,1
0,3,9,-6,3,0,2,5,1
2,9,19,18,-1,-5,-61,-10,1
8,21,19,-7,2,6,17,2,1
3,7,8,3,0,1,17,-10,1
-5,-10,-12,5,-3,-2,-26,-3,1
0,9,18,0,-3,-4,27,14,1
-4,-2,-14,-19,-3,-5,-11,6,1
-9,-22,-7,3,0,3,-29,-17,1
0,0,2,28,6,4,20,-1,1
1,-8,-8,-30,-1,-1,12,10,1
2,42,38,36,2,2,-13,-4,1
-4,-69,-92,-48,1,-2,3,6,1
-1,-13,8,18,-2,-3,-6,-12,1
9,27,15,-8,-1,3,17,4,1
-1,8,-2,-10,-2,-8,-71,-6,1
6,13,31,6,1,1,20,4,1
-2,9,3,4,-2,-7,-65,-9,1
-5,-15,-29,-8,-3,-7,9,0,1
-5,1,-3,-27,-3,1,2,-3,1
11,38,14,38,3,0,-67,2,1
-3,-29,-21,-36,-1,-1,29,-1,1
6,14,20,22,0,4,11,-8,1
0,-13,-25,27,3,1,2,5,1
-4,-20,21,-8,2,5,33,-3,1
-3,15,11,-16,-5,-9,-26,6,1
-1,4,-2,8,2,8,-5,-25,1
-2,-29,-7,-1,0,-2,22,-25,1
3,18,32,6,-3,-1,15,18,1
-7,-13,-48,28,1,-1,-62,3,1
-10,-13,-1,-53,-5,-4,20,-10,1
10,0,-11,-22,-7,-3,6,6,1
-5,9,-3,8,2,0,-2,-16,1
2,18,23,-24,-3,1,22,1,1
-5,7,20,47,1,-6,-1,0,1
-2,-2,-16,-4,-1,0,4,5,1
13,41,-9,0,-1,-2,-2,10,1
-4,3,-9,3,1,1,17,9,1
1,-22,3,6,3,1,-15,27,1
3,5,7,-9,3,2,6,-2,1
1,5,-25,-4,-1,-1,8,2,1
3,26,29,21,3,2,-25,2,1
5,-24,-19,-8,-1,-2,-4,12,1
-23,-19,14,5,-4,-10,-36,5,1
-3,-19,-13,-8,-1,-1,-3,-9,1
-9,-15,-4,-18,-4,-5,-15,-18,1
2,-8,10,7,-1,6,28,3,1
2,-4,-1,-4,2,3,-10,-6,1
15,36,0,-17,-1,-2,18,-18,1
-7,-11,-13,12,1,1,27,-23,1
-8,-16,-17,6,-5,-8,-62,-15,1
6,5,-22,-5,-1,0,-1,4,1
-7,-7,7,7,0,-1,-5,-2,1
5,0,15,-11,0,4,32,15,1
4,16,-9,-18,-3,-2,34,-3,1
0,19,31,5,-2,-7,-40,3,1
-2,-14,-22,0,-1,0,1,11,1
5,-10,-8,-3,1,0,1,1,1
-7,4,-7,31,5,2,7,5,1
-3,-9,6,-44,1,3,20,-3,1
3,23,46,26,3,1,7,3,1
-8,-38,-63,-13,-9,-5,23,-4,1
-4,-12,-4,5,0,-1,-6,1,1
9,11,2,-14,1,5,27,-11,1
3,45,26,10,-1,-1,-11,21,1
1,13,24,-6,-5,-2,17,-7,1
-9,-18,-34,-10,4,-3,24,15,1
-3,0,-36,-1,-10,-10,-34,8,1
-5,7,6,-2,3,0,-10,-15,1
4,-9,13,0,-4,1,40,33,1
3,5,-5,0,-2,-1,-52,-3,1
-13,0,1,1,-4,0,5,-5,1
-1,-29,-3,7,6,4,1,11,1
-1,13,10,4,5,-2,3,-1,1
4,2,6,-9,-2,5,-8,0,1
7,-8,16,15,4,6,27,13,1
-3,-19,-23,-27,-9,-4,-31,-2,1
-4,7,-9,15,1,-2,-8,10,1
-3,12,54,-7,1,-3,25,-5,1
5,0,-53,-29,-3,-3,0,-3,1
-2,-36,-48,-5,-9,-4,21,5,1
14,19,21,9,2,2,-8,14,1
-7,-34,-13,-10,-5,-6,-32,-8,1
0,21,54,-4,2,2,36,1,1
-1,22,9,32,2,-3,-14,2,1
-1,-28,-51,-16,-3,0,-2,-16,1
6,15,20,1,0,3,17,5,1
-3,-8,-1,31,-3,-6,-26,-4,1
3,5,7,0,2,0,11,14,1
4,10,17,1,1,0,8,16,1
4,17,-8,-1,-4,-4,-28,-5,1
-1,-4,-5,-1,1,-1,-24,-4,1
-4,-13,4,-8,1,1,21,3,1
0,4,43,8,1,0,-28,-8,1
1,-10,-5,3,1,3,11,26,1
10,-24,-51,-36,3,4,16,9,1
-19,-30,-4,1,-1,-1,-6,-17,1
-1,-10,-11,-20,-2,-2,1,-6,1
4,15,7,38,3,5,1,-7,1
-5,8,30,8,-4,-2,6,4,1
3,29,11,-24,-8,-3,-18,26,1
0,7,-3,-6,2,1,23,-8,1
1,15,-7,15,-3,-7,-9,-14,1
-4,-8,9,17,3,1,33,7,1
-1,-9,-4,-15,-5,-5,10,-9,1
-17,-15,-3,6,-1,-1,-38,0,1
6,18,12,-5,-1,0,37,2,1
3,8,16,14,6,-1,-17,18,1
10,17,31,2,2,6,20,4,1
4,-11,-54,-10,-2,-2,-8,-5,1
-5,7,20,10,-2,2,41,2,1
-1,-17,-20,-1,0,-3,-29,-11,1
-5,-7,4,-17,-2,-6,-12,-11,1
4,29,24,30,4,3,16,0,1
-5,9,9,-2,-1,-3,46,-4,1
-3,6,-6,-20,-5,-9,-27,-15,1
5,-3,-11,-4,-1,1,-14,-5,1
7,69,32,-7,-5,-5,6,13,1
10,2,-23,-10,-1,0,-17,-1,1
0,-2,12,-5,-1,1,-3,-7,1
1,-1,-9,-8,-2,0,27,6,1
-9,-19,1,30,-3,-5,-61,-13,1
-7,-15,-14,-42,-4,-5,-26,-9,1
-5,-9,-14,5,-2,4,40,15,1
4,1,47,13,3,2,3,-3,1
6,8,8,-12,5,4,15,0,1
-3,-12,-36,12,-3,-4,-19,2,1
-1,-13,5,10,-3,-4,-17,-13,1
-12,-20,-45,-6,-8,-6,19,-1,1
-7,-21,28,-3,-2,-3,-5,3,1
-3,-10,-6,-11,-1,-1,-9,-5,1
1,21,-4,-9,0,2,13,7,1
3,-3,2,12,-2,-3,-29,-11,1
-7,-10,-26,-11,-6,-7,-49,-19,1
-6,-7,3,-7,4,3,27,-6,1
3,11,5,2,-5,-1,-21,4,1
-2,7,10,-8,0,2,11,-7,1
-5,-11,-20,-6,3,0,4,-18,1
0,12,5,7,-2,-2,-11,-2,1
-7,20,12,-17,4,-1,-8,-16,1
1,-36,-13,-5,-1,-2,0,1,1
3,-10,-33,-5,2,3,31,-3,1
-5,16,9,-5,-2,-4,-38,-5,1
-1,-30,-8,14,3,7,29,7,1
-7,7,17,5,-1,-6,-31,-1,1
3,5,-7,-4,-1,3,57,7,1
7,6,13,2,4,-2,-13,11,1
-6,8,0,-4,-4,-2,6,-7,1
-3,-2,10,16,1,1,-10,3,1
-4,-59,-39,-17,-4,-3,-25,3,1
1,-15,2,-11,-4,-1,14,10,1
-2,6,17,48,1,1,-5,9,1
4,-1,-28,-24,0,2,9,2,1
-3,8,14,-7,-1,-3,2,7,1
9,21,6,0,0,7,16,14,1
-1,-4,-3,-11,-1,-7,-5,2,1
5,8,7,21,4,4,-11,7,1
1,21,11,13,-1,-1,7,-3,1
-6,-29,-10,-6,1,2,8,-2,1
5,34,15,-2,-1,3,4,-3,1
2,16,-31,-3,-3,-2,21,-1,1
-12,-32,6,-2,-2,-5,-57,-11,1
1,-13,-13,-6,-2,-2,12,3,1
7,20,-13,2,5,5,29,-1,1
-12,-33,13,5,2,-1,20,-3,1
1,-42,-9,-12,-3,3,10,-2,1
4,0,-10,-8,-3,-2,-13,1,1
-7,-30,-12,2,-5,-8,-18,-8,1
6,-5,3,20,3,5,-9,4,1
12,62,58,2,0,1,5,16,1
-6,-6,-5,0,2,2,-8,-6,1
3,-18,-56,-19,-1,0,2,5,1
0,-2,-6,-15,-7,-3,-9,3,1
-8,-7,-2,13,2,-2,9,-5,1
0,5,9,-7,-1,-2,6,-8,1
2,19,32,2,4,5,-5,6,1
2,16,10,5,0,-3,-17,-2,1
10,31,-7,-5,-5,-5,45,0,1
-5,-5,2,-3,-2,0,5,-2,1
7,0,2,-8,-2,1,-3,-3,1
3,25,2,18,-2,-3,-8,-2,1
-9,-45,-13,-13,-1,2,-11,-5,1
2,2,-17,18,2,-2,1,-16,1
-9,-11,15,10,0,0,19,-1,1
-12,-28,3,2,-1,1,-30,-15,1
13,56,11,9,0,-1,26,-2,1
-6,-13,-4,-8,0,1,16,12,1
-9,-56,-32,-5,-5,-5,-7,3,1
5,6,15,-7,-1,2,-13,-3,1
-4,-4,0,7,4,0,-10,11,1
3,-3,24,6,2,3,-19,10,1
4,21,1,0,1,0,30,11,1
4,20,4,-4,1,3,15,8,1
0,-13,-8,-4,-4,-1,-2,-2,1
-2,3,-16,6,-2,-1,-7,1,1
-3,-2,13,-38,-5,-5,-17,-3,1
-2,8,22,31,5,3,44,10,1
-5,4,-26,-3,-4,-4,-49,3,1
-5,-45,-11,4,-2,0,29,-7,1
13,17,-4,-14,-1,2,-9,16,1
-4,0,4,-6,2,1,-6,2,1
-9,-30,25,0,0,0,-9,-19,1
4,6,-20,-10,-4,-5,-6,-7,1
-20,-15,-16,1,-3,-1,-39,-3,1
13,8,-3,-9,1,-3,7,-13,1
3,0,-6,34,4,-1,0,14,1
0,2,2,-16,-6,2,20,7,1
5,13,8,-3,0,-1,-1,-10,1
0,-9,-11,1,-1,-3,20,-3,1
-1,9,-9,-22,1,2,-2,-3,1
-2,27,6,-15,2,3,-6,6,1
3,5,20,18,8,3,5,-4,1
-14,-30,-51,-25,-10,-9,-20,0,1
7,10,23,1,-4,-2,5,-4,1
3,-8,-1,17,1,4,11,3,1
-10,-38,-7,4,-2,-3,-31,-5,1
1,-7,7,-1,-4,-4,-22,2,1
-10,-11,-38,-7,0,0,22,-9,1
1,-11,-17,-16,1,-1,-32,4,1
-10,-18,2,38,-5,-5,9,20,1
10,34,19,-1,1,1,21,7,1
-2,7,20,9,-1,4,9,22,1
0,4,5,-20,-5,-1,27,-3,1
1,3,-6,-13,-1,-11,-61,-2,1
-10,-24,-10,5,-2,-1,-15,-7,1
10,16,-1,-7,-4,5,25,13,1
3,33,15,23,2,3,9,9,1
7,6,5,-19,2,0,17,-10,1
8,24,3,2,-3,0,-1,-9,1
-2,0,9,-6,2,1,-11,1,1
-6,-14,10,-2,0,-3,-24,-3,1
-8,4,22,32,-1,2,16,-2,1
-6,-18,-22,-6,-2,-2,-7,10,1
7,21,2,-2,-1,-1,5,2,1
-10,-17,-2,-24,-2,-2,-12,-8,1
0,20,14,39,7,2,13,-4,1
7,14,1,-19,-5,-2,1,7,1
-7,-4,27,10,-1,-3,-24,-2,1
2,9,-19,-3,-2,-7,-21,-3,1
0,-19,-28,-16,-5,4,27,-1,1
-8,-12,1,1,3,-2,-83,5,1
2,1,-6,-9,-6,-6,24,-5,1
0,3,18,20,2,3,-4,6,1
10,25,0,-5,-2,-1,11,-11,1
10,14,-5,12,0,2,20,-5,1
-8,-8,31,-11,2,-1,-11,-4,1
-2,-24,-67,0,-1,0,15,1,1
-14,-2,6,-15,-9,-8,5,-25,1
-11,-24,9,12,-4,-4,-22,-11,1
-9,-33,-35,-38,-4,-4,3,-3,1
-15,19,24,54,0,0,5,-4,1
15,12,7,-18,-2,1,28,9,1
2,17,-7,-31,-3,-6,-45,2,1
-12,-8,4,7,0,-2,3,4,1
9,4,-4,0,-1,3,58,-10,1
-11,-20,-12,-13,-3,-6,-58,-2,1
-4,16,10,12,3,4,27,6,1
10,9,-20,7,-3,-3,-7,-3,1
2,2,2,-12,1,4,-9,-19,1
-17,-20,-6,7,-1,-1,30,-13,1
-6,-23,-1,-7,2,-4,-45,-4,1
0,6,1,13,0,-1,12,-3,1
-2,-5,35,-24,-7,-2,-22,8,1
8,-3,-31,22,1,2,-5,5,1
-7,-14,-20,4,-1,1,21,-1,1
-6,-23,-4,-16,2,4,-3,-1,1
0,0,35,-2,-2,-8,-36,-2,1
9,-15,7,25,0,2,13,12,1
-6,-39,-27,-4,-2,-2,28,10,1
-6,-26,-14,2,2,3,-10,-15,1
12,-3,-31,-10,-1,-5,-1,-13,1
-8,-7,-2,-17,-4,-2,-14,14,1
0,0,31,-17,3,3,39,-9,1
8,8,-22,24,5,-2,-18,20,1
-2,-5,15,-8,-4,-2,-69,-2,1
7,-3,-51,-20,-4,-1,3,-16,1
6,23,21,9,3,1,20,1,1
-8,26,8,-14,-4,-5,-24,4,1
1,-13,-9,11,2,3,20,12,1
10,23,24,8,2,4,52,7,1
-11,-2,-4,-11,-1,3,3,25,1
2,-10,0,8,1,4,-1,-5,1
-10,-4,4,23,-1,-4,19,3,1
3,22,15,-13,-1,-1,-11,3,1
0,-7,-20,-15,-5,0,21,1,1
10,10,7,11,-1,-2,2,-2,1
-4,-4,25,-6,2,-3,1,6,1
-5,-2,9,11,2,1,-13,-2,1
-2,-12,-31,-11,-5,-3,-10,-18,1
5,24,-10,-5,-4,-2,-15,-8,1
2,1,-2,25,6,5,31,-4,1
1,16,13,-7,0,-2,-19,2,1
-4,-22,-5,5,-5,-4,-21,-16,1
-6,4,51,2,-1,2,9,-1,1
-2,-17,-55,-19,-1,-1,15,4,1
0,12,16,14,2,1,14,8,1
-1,7,-18,14,1,0,-16,-4,1
2,0,6,-7,-3,0,23,-3,1
3,26,2,-2,-1,0,-4,14,1
-11,-25,-10,-7,-3,-2,-28,-2,1
0,7,16,-7,0,1,19,-9,1
2,11,0,21,0,-1,-1,-19,1
6,13,1,-1,-4,-1,0,4,1
1,8,5,-15,2,0,-13,10,1
-2,-32,0,16,-3,-6,-1,12,1
-2,-32,-37,-14,4,2,11,-6,1
-3,-11,-21,-11,-5,-8,-63,8,1
6,15,8,-7,-3,-1,-1,7,1
-1,31,13,18,8,6,14,4,1
2,8,16,4,-4,2,9,11,1
-25,-53,6,-23,4,-6,3,-16,1
0,-8,-2,-7,-2,0,9,13,1
4,1,7,6,3,2,5,3,1
-2,-3,-9,2,-1,-1,-34,1,1
3,11,10,3,-2,1,8,5,1
2,-1,-9,9,-2,0,7,-16,1
0,0,-1,-4,-3,-2,-10,-5,1
5,23,4,1,2,0,-22,-14,1
-4,-2,-1,-2,1,1,-8,-3,1
6,29,59,1,2,2,-4,4,1
21,44,-49,10,-4,-2,6,-1,1
-9,-30,-57,-40,-5,0,7,5,1
12,-1,4,20,-1,-2,-9,1,1
-3,-4,22,3,0,1,24,1,1
-8,3,35,-36,-3,-4,-20,-7,1
10,35,3,57,2,2,48,-11,1
-7,11,12,18,-4,-2,7,10,1
15,-8,-4,-22,5,6,5,18,1
-2,-5,-16,-14,-7,-4,18,-9,1
-1,-10,-1,-7,-1,-1,-15,2,1
3,9,7,-2,-4,-2,4,9,1
3,16,13,14,-1,-1,14,-2,1
-6,-13,-24,5,3,-1,-14,-2,1
-2,-10,7,-10,-2,1,17,28,1
-2,3,-4,6,-2,2,29,3,1
-8,-18,-17,-3,-5,-6,-44,2,1
12,29,13,2,3,5,25,5,1
-11,-9,6,-2,-3,-7,-24,1,1
4,1,6,-6,3,5,3,1,1
-11,-19,-27,10,-1,-2,5,-9,1
-4,20,10,-37,-1,5,-1,1,1
7,5,27,52,-3,-5,-20,18,1
-4,9,4,9,1,-3,-22,4,1
-6,-42,-32,-10,-3,-3,26,-13,1
-12,-50,-72,-10,-5,-6,-7,-2,1
4,2,20,-28,3,5,25,9,1
5,13,8,8,1,2,-13,-4,1
-3,23,5,-21,-4,-3,-16,14,1
0,2,42,19,1,1,31,-2,1
1,-6,-18,-10,0,2,34,-10,1
4,7,-3,-4,3,2,6,-2,1
-9,-5,-9,1,-4,-4,-34,-13,1
-2,-5,9,5,1,-8,-46,25,1
-4,3,-8,-6,-3,0,30,-12,1
4,8,10,-13,0,2,35,-1,1
1,8,18,10,2,4,28,-9,1
-3,-9,-31,8,-2,-2,0,-7,1
7,22,49,-2,7,3,-33,22,1
-2,-4,-100,-22,-7,-4,6,7,1
-5,-16,-11,12,-4,-6,-16,-1,1
3,16,22,24,4,3,-5,9,1
-14,-37,20,-15,0,-2,-10,12,1
-1,9,2,-16,0,4,8,-12,1
2,0,-1,7,-2,0,-4,14,1
-4,11,12,2,-3,-9,-64,-7,1
6,33,-6,2,0,5,18,-2,1
-3,-11,17,4,3,-3,1,1,1
-7,-7,-9,3,5,1,0,-2,1
10,0,19,1,0,2,-29,-2,1
-4,1,-4,-4,-1,-4,7,-3,1
5,1,-8,-7,-2,1,-20,6,1
2,10,-37,11,-2,0,18,-2,1
0,3,27,-19,-2,-1,-2,7,1
-1,-12,-41,4,-4,-4,-8,-13,1
-3,7,28,9,1,0,-13,-6,1
-6,-36,2,-16,2,3,19,0,1
-8,14,7,12,3,2,56,2,1
-1,-9,-3,8,-5,-8,-6,-2,1
1,-3,17,-4,0,2,7,4,1
0,4,-3,-7,-4,-4,-8,-8,1
-4,-11,-10,-4,-2,4,18,0,1
8,54,20,9,-1,-2,-5,-2,1
-1,-1,28,6,3,2,-7,-1,1
-12,-36,-99,-10,-1,-6,-3,3,1
-1,-3,25,-5,-3,-1,6,1,1
-2,4,-15,-1,-1,-1,-9,9,1
-1,-9,2,-14,-4,1,5,7,1
7,43,38,9,-1,-6,-45,-8,1
1,-4,9,0,1,-1,11,22,1
-6,-13,-30,-27,-4,-3,-17,-13,1
-5,-9,15,45,3,-3,-13,-4,1
8,30,23,14,2,3,1,13,1
-8,-47,-25,-4,-8,-4,-43,-20,1
-7,11,19,-13,-2,-2,25,-4,1
8,16,-4,-4,0,-1,5,8,1
-6,-9,1,-12,-4,-5,-10,-6,1
2,13,4,21,2,2,10,1,1
-1,-4,0,2,2,2,-18,-16,1
-5,18,20,8,-3,-4,-10,-9,1
-2,-16,-58,-28,-3,5,21,-7,1
1,-37,8,-7,-2,-4,3,0,1
0,-23,-1,10,1,-1,16,2,1
2,-2,-4,-44,-4,-6,-14,1,1
-1,14,66,54,5,2,-1,8,1
12,37,-26,-15,2,3,8,-14,1
0,-26,-15,-2,1,0,4,14,1
-9,-13,2,1,-4,0,7,-6,1
4,-5,3,-13,1,2,-4,1,1
-6,-5,-7,-17,-6,-3,5,-6,1
1,-3,12,13,-1,1,-6,10,1
-5,-14,-48,-14,-3,-6,-23,-10,1
-10,-10,5,2,-5,-10,-43,2,1
10,25,18,8,2,0,15,8,1
-5,-4,63,7,3,9,0,13,1
-14,-61,-94,-37,-4,-4,3,-15,1
-7,-28,13,-7,-5,-2,57,-7,1
2,-23,4,17,2,-2,-29,10,1
7,21,14,-18,3,1,6,10,1
4,8,21,51,3,2,13,2,1
11,6,-15,-18,-1,5,14,11,1
-10,0,21,17,3,2,9,-14,1
-4,9,-3,-2,-4,-2,-13,-8,1
0,-32,-11,-7,1,-3,-4,-17,1
10,20,-3,5,0,2,-2,6,1
-7,9,0,-15,-1,-1,12,-10,1
6,12,-22,10,-2,-2,-26,-14,1
-5,-2,31,11,2,7,43,7,1
-4,3,-12,10,-3,-9,-40,-5,1
-3,-4,-24,-16,-2,3,8,9,1
-7,-21,-37,6,-3,-9,0,0,1
1,14,38,-10,-1,3,14,13,1
-1,17,-14,5,0,-3,24,-20,1
-3,26,-10,29,-2,-2,-6,-4,1
0,-31,-22,6,-4,-9,-23,-6,1
12,52,28,-7,2,2,-17,17,1
-5,-5,28,-21,-4,-1,-6,14,1
5,4,-14,-10,0,3,7,-2,1
-6,-5,-3,8,1,1,49,-21,1
-5,8,-1,9,-8,-11,-76,1,1
5,1,7,2,5,4,16,2,1
-5,-7,-12,-3,0,3,22,-12,1
-1,1,-4,-25,-2,3,-1,-4,1
-12,-9,-15,3,-3,-5,-4,-16,1
8,18,9,-2,-3,-4,-14,-10,1
-3,-13,17,-7,-3,-3,3,0,1
-7,16,-4,-7,-6,-6,-36,-6,1
0,-7,16,5,0,7,33,-7,1
5,-8,-16,-10,1,-7,-37,23,1
5,9,6,13,0,-3,-8,-3,1
7,8,-4,-1,1,4,20,3,1
-5,-18,-10,4,0,-2,6,3,1
-1,-7,4,1,-2,3,19,6,1
-5,-34,-14,-20,-2,-2,-27,5,1
-11,-35,-8,3,-6,-8,-14,0,1
5,23,22,-18,-4,-5,11,1,1
-6,-33,-52,14,4,3,45,-8,1
3,21,10,-6,-2,5,-4,17,1
0,-19,-8,2,-1,-8,-13,12,1
4,12,27,-4,-5,1,10,12,1
-1,9,9,-6,-4,-4,-16,-15,1
4,-17,3,22,2,3,-17,1,1
0,5,30,1,3,-2,-12,9,1
-8,-6,-35,-18,3,4,10,10,1
3,-3,14,14,1,3,2,7,1
-2,4,-3,-15,-2,0,28,8,1
9,-1,-7,3,0,5,8,11,1
0,14,17,6,1,-6,-25,2,1
-6,-20,2,4,0,3,-1,-8,1
2,28,20,-13,-1,-2,-4,28,1
0,6,-26,2,5,7,2,5,1
3,32,9,0,-6,-4,7,-11,1
-5,-1,-1,-20,0,0,-22,11,1
7,-18,-3,41,1,-4,11,0,1
-2,3,13,-25,-3,-3,-13,-13,1
3,-1,-26,16,7,7,5,-4,1
0,-16,-11,-13,1,4,12,-9,1
-10,-4,3,10,-1,-5,5,-13,1
2,21,36,-17,-3,3,-2,-10,1
3,-29,-54,-9,-2,-1,2,-6,1
-6,-3,-18,-1,-6,-8,-8,-1,1
-7,-5,5,8,-4,-3,4,-12,1
-2,7,-7,26,8,5,11,20,1
2,-6,8,-17,-1,0,-10,-1,1
6,14,-3,-34,-2,-3,-12,-5,1
2,-7,-35,24,-3,4,30,-2,1
3,-29,23,-4,-3,-6,-11,-4,1
0,-11,-21,6,2,-2,-2,-1,1
5,-10,0,5,2,4,-3,3,1
3,4,10,-12,2,-1,-12,-11,1
-1,10,14,-10,1,4,3,-7,1
-2,-13,-37,9,-1,-2,-12,-11,1
2,25,26,17,-4,1,16,8,1
-25,-28,8,-44,2,4,16,1,1
-5,-17,-14,17,-12,-14,-21,-4,1
-3,9,17,3,-3,2,-6,5,1
-3,-8,15,9,2,2,-7,3,1
1,-1,-9,-27,0,6,21,-3,1
0,12,-13,5,-4,-7,-30,0,1
4,7,38,20,3,2,9,6,1
14,47,-19,-10,1,-1,-5,-8,1
-16,-73,-45,-26,-10,-8,-19,-3,1
-2,-26,-47,-13,1,1,20,-8,1
1,-10,-6,2,-1,3,13,10,1
-9,11,31,15,4,0,-3,-16,1
7,29,57,6,1,-5,-4,-6,1
-6,4,-27,9,-2,1,10,-3,1
-4,-10,8,-13,-6,-5,-3,-7,1
-9,-9,15,-3,0,-1,15,-4,1
5,19,5,21,1,3,74,9,1
-4,13,4,-72,-3,1,-25,-3,1
2,-5,3,59,0,-4,13,-12,1
13,20,4,-22,-2,-1,16,-8,1
-9,0,-3,-6,-7,-19,-94,-26,1
-10,-10,-7,20,-7,-6,8,-8,1
4,21,0,-8,0,-2,-5,18,1
-7,-35,-10,10,6,10,11,-1,1
12,19,11,5,8,9,8,10,1
13,26,53,36,7,6,24,10,1
-2,10,12,-23,-6,-5,-34,-1,1
-16,-46,-97,3,-7,-8,-2,3,1
-3,3,-3,0,-1,-1,-8,-2,1
-3,-12,-3,0,0,-2,-6,2,1
0,0,22,2,0,3,21,13,1
2,29,42,5,3,6,-8,12,1
1,-10,-35,-9,-1,2,6,-1,1
3,-3,-2,3,-1,-5,39,-3,1
-1,-12,-2,-7,1,5,21,14,1
-7,0,6,-11,-6,-14,-22,-11,1
-1,7,2,6,-2,1,25,2,1
-4,1,34,6,0,2,18,1,1
-2,-4,-67,-12,1,1,-38,-18,1
10,21,24,-19,-1,6,50,2,1
-3,-20,0,-43,-6,-5,-50,-1,1
3,26,40,71,2,-3,12,-3,1
6,23,74,-25,2,3,25,0,1
-8,-50,-83,-7,-5,-3,-6,-2,1
7,-4,40,3,2,8,11,22,1
-6,-7,-3,-23,-6,-11,-31,-15,1
-2,9,44,16,-3,-17,-64,-5,1
1,23,36,8,1,3,-6,2,1
4,6,-21,7,-1,-2,4,8,1
-6,1,-29,-11,4,11,17,11,1
-3,-4,-19,7,-3,-3,-25,-19,1
1,7,17,-1,-3,-6,-8,-9,1
-3,-15,-25,6,4,0,6,21,1
4,7,-3,-12,-1,2,-22,11,1
-1,0,-14,-7,0,-4,-4,-11,1
-2,-7,7,5,-1,2,5,6,1
-1,16,6,8,-1,4,1,7,1
-7,-23,-22,-21,2,-8,-8,-8,1
0,22,-22,-4,-5,1,-67,-5,1
4,-1,42,-9,-3,-2,-48,2,1
-6,27,-5,11,3,-2,55,-7,1
12,-16,-19,-27,0,10,45,15,1
-4,-24,-4,-3,0,-1,29,2,1
0,4,-7,6,0,0,-5,1,1
9,25,30,0,-4,-9,-71,5,1
2,19,23,2,3,8,5,-4,1
-8,-45,-87,19,-2,2,41,0,1
-1,10,28,0,-4,-4,7,5,1
7,7,1,1,1,-2,27,-14,1
-7,-16,5,2,-7,-5,-10,3,1
11,12,30,-37,3,3,17,37,1
-5,-2,-21,19,-2,-3,1,-1,1
-5,-35,-62,-12,-3,-2,-5,2,1
5,4,7,3,2,4,-2,-2,1
-7,-1,11,-9,2,-1,-57,-4,1
-6,-27,21,4,0,-10,-18,-6,1
11,60,1,-6,-3,4,23,-5,1
-5,-19,-33,6,0,3,-15,9,1
-13,-13,0,10,-3,-3,38,-16,1
-5,-5,6,-13,1,-1,-15,3,1
-2,9,39,28,-2,-5,-23,-7,1
7,6,-38,-38,0,3,29,2,1
4,-11,4,29,5,10,25,5,1
-2,17,-5,-20,-5,-7,28,-4,1
-6,-30,-18,-19,-4,-4,-51,7,1
-10,18,20,-8,-5,-5,-9,-9,1
1,-5,13,-10,-5,-1,33,6,1
2,14,7,24,5,5,19,6,1
-4,-2,16,0,-1,-3,-2,-2,1
-6,-6,21,9,1,1,-3,-8,1
21,40,-38,-7,-6,-4,-3,4,1
-2,-15,-1,6,-1,0,38,-1,1
-3,-6,-4,-2,0,-3,8,-12,1
1,6,18,7,3,0,-17,-8,1
3,47,14,-14,1,5,42,-18,1
6,-6,-29,-8,-2,2,9,-9,1
-6,-20,-22,-8,2,0,-13,-5,1
11,-8,-23,14,0,-2,1,-3,1
-11,-22,-3,-5,-5,-7,-6,-11,1
5,14,7,-1,-1,-1,-35,-1,1
1,1,7,3,0,-1,-18,-4,1
5,30,24,5,-2,1,37,6,1
7,49,6,0,0,1,16,18,1
5,13,3,3,1,4,9,2,1
-2,-19,12,7,-1,0,12,-5,1
1,2,-16,-9,-3,-4,-12,7,1
-9,-4,19,-22,-7,-6,-21,3,1
-4,6,23,21,-9,-10,-12,5,1
5,17,-39,-17,6,9,23,0,1
-7,-41,-33,15,2,1,2,6,1
-2,-20,10,-19,4,4,6,11,1
2,9,10,17,0,-2,-20,3,1
-5,17,9,-6,0,-1,18,3,1
-3,-22,-4,7,-5,-7,-74,-1,1
-2,8,-3,13,0,-5,-5,2,1
12,-2,17,-10,1,6,11,28,1
4,-3,12,8,2,4,-7,-5,1
7,11,-7,-4,1,0,12,-11,1
-14,-19,-20,8,-4,0,14,-16,1
-6,-4,-19,-14,-3,-5,-19,-13,1
3,1,11,6,-3,3,14,-4,1
5,15,13,4,-2,-2,-42,6,1
-1,-11,5,7,0,-6,-61,-5,1
-2,-2,-10,-12,-5,-2,-7,-11,1
-16,-48,-8,8,1,3,7,-5,1
-5,-11,1,-6,-3,-3,3,5,1
9,-2,8,13,2,9,26,-14,1
-8,-6,-10,-12,3,-1,-13,-3,1
5,-25,3,-9,-4,-10,-23,8,1
-6,-45,-53,8,4,5,31,-19,1
-14,-48,-23,15,-2,-2,8,2,1
-9,-33,-5,-11,-3,-3,4,-15,1
12,21,30,39,2,1,36,-13,1
-3,14,21,-31,0,1,11,5,1
-3,-6,11,-1,0,-3,-7,3,1
6,1,-8,10,5,5,-4,18,1
-1,11,-9,-6,-2,2,29,4,1
15,76,20,-18,-4,-8,-55,51,1
8,11,-8,15,2,3,-1,-22,1
-7,-7,-21,11,-3,2,19,2,1
-1,16,7,-1,0,-6,-35,0,1
-2,-13,34,9,-4,-5,10,-10,1
9,2,-6,-26,0,4,-2,7,1
-1,14,26,8,1,-2,10,-9,1
-12,-9,-20,-4,1,4,4,-9,1
-3,-18,3,17,1,3,30,-16,1
-2,2,30,-11,1,1,12,10,1
-11,-18,8,13,0,-3,8,-21,1
-2,-11,-21,-10,-8,-6,-26,-16,1
-1,6,-22,-17,-1,4,44,-10,1
-8,30,8,-6,-8,-11,-27,5,1
13,11,38,28,7,5,8,12,1
4,-2,-21,-24,-2,-6,-28,3,1
-11,-38,-12,-19,-6,-1,-1,1,1
-1,36,32,30,6,4,5,-33,1
3,-8,-14,-5,-1,3,18,-19,1
-7,22,-75,-19,-7,-10,-86,19,1
7,10,27,15,6,4,15,-8,1
-12,-26,-31,-19,-2,-1,-3,-1,1
5,10,17,7,0,3,-6,8,1
-1,15,66,-29,-5,-3,24,45,1
-5,3,-48,58,-3,-7,-11,-19,1
-23,-58,-2,-42,-7,-6,5,1,1
-3,-13,-18,-7,-5,-5,-10,-8,1
8,21,11,9,-2,0,14,-4,1
1,1,-2,1,-2,0,-12,14,1
2,21,8,6,0,-3,27,-15,1
-10,-26,2,-18,-2,-5,-48,-16,1
-2,11,30,18,4,0,19,-21,1
-11,-23,-77,-8,-5,-4,-16,-25,1
5,-5,-12,12,1,0,-15,-5,1
3,7,0,-17,3,0,3,15,1
-1,23,42,28,3,5,37,-9,1
11,11,15,-17,0,-3,-24,4,1
7,-10,-2,9,-1,3,16,19,1
1,10,-23,-19,-1,0,-8,4,1
-9,-31,12,28,-2,-1,9,-3,1
18,19,15,5,9,11,25,3,1
-25,-31,-28,-1,-9,-11,3,7,1
14,36,2,-53,3,1,-13,20,1
5,-10,48,27,0,-2,9,-6,1
-16,-47,-80,-14,3,2,-40,5,1
3,-8,10,31,6,10,62,2,1
-5,19,-8,2,-4,-8,-64,10,1
2,-21,-26,-21,-4,0,1,8,1
0,25,58,14,-1,-1,18,6,1
6,6,12,-18,-1,-1,-23,13,1
-5,-7,-29,11,1,1,28,-3,1
1,0,-12,-7,-2,-4,-13,-27,1
0,16,19,-1,-6,-7,-64,-8,1
2,-35,-30,4,1,-1,-4,1,1
4,9,3,6,1,3,36,-1,1
1,-2,-3,-3,-2,0,-10,3,1
-1,-1,23,-5,4,3,33,-4,1
1,32,33,4,-2,-6,-44,7,1
-1,15,21,25,4,3,11,-4,1
6,-10,-56,-22,-1,2,5,3,1
-13,-22,24,-12,-8,-7,35,1,1
8,16,-16,-10,-1,2,13,-8,1
-8,-36,21,-1,0,1,50,10,1
-6,-14,-4,13,4,2,4,14,1
5,31,22,3,0,-1,19,-1,1
4,-39,-20,-15,-4,-2,-30,-5,1
0,-19,-9,-7,-3,-5,6,-13,1
6,-12,-14,-3,4,6,-3,5,1
-7,-12,-18,9,-4,-7,-8,1,1
-2,5,5,7,3,4,-9,-3,1
3,16,19,4,-4,1,11,7,1
-7,-22,-26,2,1,1,-12,-1,1
1,0,4,15,4,4,29,5,1
5,30,6,-3,-1,-2,-13,-5,1
-4,-6,9,1,-4,-3,31,2,1
0,17,34,-20,0,-6,-55,-2,1
-3,13,-38,-18,-4,1,0,-15,1
-4,-30,0,15,4,3,14,4,1
-3,-5,-8,-9,0,4,-1,2,1
-1,8,8,24,-1,-3,27,-4,1
17,36,-2,-32,-1,6,-17,3,1
-1,-3,3,-7,2,-2,3,9,1
6,29,4,5,-4,-6,-29,-8,1
4,3,10,-4,4,1,36,-3,1
-6,-28,-62,11,-9,-10,-74,5,1
-7,-1,31,1,-2,-1,2,-2,1
5,7,-20,-7,-2,3,-6,3,1
-6,21,18,1,-4,-1,2,-14,1
-7,-13,44,5,5,2,10,-1,1
1,3,-66,-14,-1,1,4,3,1
6,40,0,0,-3,-1,-6,-1,1
-9,-35,-12,1,1,2,-14,-2,1
0,6,33,11,-4,-4,4,-6,1
4,7,9,-3,1,2,-7,12,1
1,2,-7,-29,-3,-3,23,-11,1
-6,37,28,10,-3,-1,-33,-5,1
-4,0,-30,3,2,4,48,-7,1
14,51,-1,-3,-1,-4,-51,8,1
7,2,7,21,-2,-2,22,4,1
2,-2,-20,-14,-3,-1,2,9,1
-8,-48,27,-4,0,-1,-10,17,1
13,33,6,3,-3,-1,18,-7,1
-15,-41,-22,-1,0,-3,-33,-4,1
0,8,8,-5,-1,0,15,-4,1
-9,-21,-43,0,-2,-5,1,-6,1
2,-11,15,5,1,4,12,-1,1
-12,-25,-15,0,-3,-3,-15,0,1
-5,3,7,8,-2,-4,-27,-4,1
21,98,27,-51,1,3,-6,16,1
-23,-38,11,31,-1,-3,13,-19,1
-3,-13,13,1,2,1,-6,-10,1
-6,-23,-21,5,-1,-2,20,-11,1
18,37,39,-3,2,-4,-19,6,1
-5,-30,-73,-21,-1,2,-1,2,1
0,-25,12,-14,-4,-3,-13,-1,1
-1,-29,20,14,-2,-2,16,16,1
-8,-19,3,8,-4,1,27,-3,1
-3,-17,15,-2,-5,-8,-11,7,1
8,11,0,29,7,5,27,25,1
5,8,-36,-27,-5,-1,8,15,1
-5,7,57,12,-2,2,14,7,1
11,28,27,3,2,5,4,15,1
-6,4,-50,17,1,1,-1,3,1
-4,-4,13,-1,0,-5,-4,-2,1
8,-6,-2,-4,-4,0,-1,2,1
-6,-2,3,3,0,0,5,-5,1
-1,6,18,-21,3,-1,-17,-14,1
-3,-8,-3,-7,-1,1,2,-5,1
-2,-44,-30,29,-4,-4,-28,-10,1
4,6,13,-12,1,2,5,6,1
6,13,34,5,-1,0,-9,30,1
-1,-2,-51,1,-4,-1,-1,-4,1
-11,-11,0,-2,-1,-1,14,2,1
1,-5,4,-2,1,-3,-11,-8,1
0,-7,4,-6,-1,3,29,2,1
-3,-31,-31,9,2,-1,-5,-10,1
-4,-29,-1,-9,-1,3,1,3,1
9,41,9,21,-1,-1,3,4,1
-12,-54,8,-11,-4,-2,-13,-7,1
6,25,0,-37,-3,-4,-6,-5,1
0,-17,12,46,3,0,43,-7,1
-5,-14,-39,-21,-4,-3,-43,-13,1
17,65,11,-10,-6,-8,-9,-7,1
-15,-24,13,-5,-2,-3,-2,-4,1
11,31,-15,-24,2,5,1,2,1
3,-6,21,21,-1,0,22,13,1
-12,-18,-23,8,-3,-6,-29,-20,1
-6,5,-3,6,0,-1,-5,-11,1
-3,24,39,-1,0,-1,-26,-2,1
-8,-12,-17,2,-1,4,18,-3,1
-2,-23,-22,-5,-1,-2,-38,-5,1
7,16,18,-26,-1,1,-7,2,1
5,43,9,23,-4,-8,-9,-18,1
-2,6,-2,-14,-2,-1,2,-3,1
4,12,17,15,2,3,25,1,1
1,29,-13,-7,3,6,-3,18,1
-21,-64,-47,-28,-4,0,-3,-5,1
-7,33,7,3,-4,-6,-10,-6,1
7,46,-7,2,-5,-8,-17,9,1
15,16,16,1,1,3,35,17,1
-13,-5,5,-10,1,-4,-31,-12,1
8,-14,-45,0,0,1,15,0,1
-7,-6,-15,-17,1,3,14,1,1
2,13,6,10,-2,-1,-3,16,1
-5,6,16,2,3,-3,-47,-4,1
6,22,57,3,0,2,22,5,1
-4,-3,0,3,4,4,6,-21,1
-4,-23,-32,-6,-2,0,14,-12,1
-1,-12,-17,6,-6,-2,61,19,1
-1,-7,21,7,-1,-10,-48,19,1
-9,-22,14,4,-2,-1,-2,-2,1
-1,-4,29,2,2,0,0,2,1
4,-5,-27,-27,0,2,18,-13,1
-12,-46,-38,26,-1,-2,-4,-8,1
-10,18,-16,-20,-5,-3,13,-1,1
7,4,25,5,-2,-6,-6,-3,1
7,32,0,-15,0,1,-6,14,1
-1,-6,22,23,3,3,26,4,1
-5,-17,-7,0,-1,-3,-16,-15,1
-6,-22,4,11,1,0,0,-2,1
-4,-8,-44,2,-2,3,1,-7,1
13,-2,3,-15,0,-6,-46,39,1
0,-3,13,4,2,0,10,-11,1
9,14,23,9,2,5,1,11,1
1,2,0,-3,-2,-1,3,0,1
-5,0,-10,-13,2,1,2,-7,1
3,12,14,0,-3,-1,5,3,1
4,5,3,14,2,-3,-22,-1,1
0,-29,-30,10,-2,0,5,7,1
-1,-2,-19,-31,-5,0,8,-7,1
4,-2,9,1,0,1,22,17,1
-9,0,10,17,0,-5,-60,-11,1
-10,-7,20,-5,0,-1,21,14,1
5,29,0,-5,-1,-3,2,-9,1
8,6,-1,-2,-1,3,-22,5,1
13,37,30,-26,-2,1,20,1,1
-10,-22,-32,51,-1,-2,-5,-13,1
-14,-9,1,-8,-3,-4,-19,-15,1
8,29,84,-6,2,0,14,9,1
-8,-12,-68,15,2,5,2,8,1
-1,-23,1,-23,-1,-3,21,-19,1
3,4,28,-6,2,5,53,7,1
-7,-31,-28,9,-4,-5,5,-11,1
-2,15,23,-2,1,2,18,-2,1
3,19,19,-10,2,0,-34,-9,1
-12,-31,-9,6,-1,2,22,-12,1
-3,2,-34,-21,0,-1,21,-11,1
5,28,-2,5,-6,-8,-66,-4,1
8,17,3,-5,-3,-4,-12,12,1
-8,-38,0,-18,-3,0,0,9,1
18,24,-5,26,0,3,1,-2,1
5,-33,-24,1,1,1,26,6,1
3,9,40,-20,-1,-4,-21,8,1
6,45,17,42,4,2,-19,-7,1
-1,-22,-48,-25,-2,-2,-4,11,1
-6,5,-8,-8,-8,-4,21,10,1
3,7,37,-11,4,-1,-13,-16,1
7,15,7,-5,2,7,8,6,1
-12,-29,-37,6,3,0,6,6,1
4,7,4,0,-2,-2,25,-7,1
-14,-23,-12,1,-1,1,12,-6,1
5,34,24,-3,-6,-10,-68,4,1
-4,-23,-6,-9,5,8,14,-17,1
-3,9,-9,8,1,-3,-15,-14,1
5,13,55,12,2,4,8,6,1
-10,-74,-86,7,-1,5,35,2,1
-5,55,-5,-22,-9,-9,-24,-1,1
7,-10,11,-3,-1,-4,19,-1,1
0,-27,-50,3,-1,1,-7,9,1
3,22,26,-4,2,0,31,-6,1
1,-8,4,3,1,3,11,11,1
-6,-11,6,9,-4,-3,-39,-13,1
4,21,5,5,0,-3,-21,12,1
-6,-41,-5,-32,0,2,12,9,1
-3,-4,13,46,1,-2,-8,-3,1
-7,-13,-24,-22,2,2,33,-3,1
-9,-22,9,-5,-7,-3,14,5,1
11,8,-22,-8,2,1,-8,-17,1
-2,-33,40,12,-3,-3,-5,7,1
-12,-40,4,12,3,2,-12,-21,1
14,23,-12,-5,-2,-7,-27,-6,1
-3,-2,3,-12,0,5,23,-11,1
-2,-27,-23,4,1,-1,-19,1,1
-2,-4,8,-10,-2,-1,10,-2,1
0,19,-7,-5,0,-1,-4,-12,1
3,30,25,22,-3,-6,-2,-3,1
18,16,1,-9,0,6,37,4,1
-6,-9,5,-7,-8,-7,-34,4,1
-5,-8,-9,9,-1,0,33,-4,1
1,4,-3,-5,-4,-9,-90,7,1
-6,1,3,-11,-4,-1,0,-1,1
-1,-12,-39,24,-2,0,18,-10,1
5,-28,-9,-23,4,8,11,7,1
6,8,7,21,-2,2,17,3,1
-6,0,84,48,3,-5,-41,5,1
5,-23,-76,-35,2,2,16,-1,1
0,3,-34,-23,-6,-7,0,8,1
-1,-5,3,-11,-3,0,12,2,1
-1,0,-1,3,-3,-1,-12,-5,1
-5,23,49,11,-4,-10,-16,17,1
1,7,1,13,4,4,-3,-9,1
-3,1,-2,-15,-1,-2,26,-10,1
3,7,-14,-6,-4,-4,-43,-5,1
-1,4,4,-4,4,8,35,-18,1
-2,3,-6,3,-5,-10,-35,7,1
-10,4,8,4,-4,-10,7,-2,1
-3,-5,-16,-9,0,2,11,2,1
5,6,2,-3,-1,2,20,12,1
2,33,42,9,1,3,-12,16,1
-17,23,24,25,1,-2,-13,-22,1
-1,-21,-102,-27,-9,-10,13,8,1
0,5,10,-1,-5,-2,17,14,1
5,19,28,17,2,2,3,8,1
12,36,17,13,0,0,-20,7,1
-2,6,7,-9,-1,2,15,-1,1
-5,0,10,-10,-3,-5,-4,-3,1
-9,-27,-28,15,-5,-9,-29,-6,1
11,20,6,10,13,12,0,17,1
-21,13,2,-35,-7,-3,11,-16,1
6,-12,-26,-7,0,-1,-3,1,1
3,9,8,9,2,4,18,5,1
2,-24,-19,-12,0,2,3,4,1
5,8,18,15,4,0,-15,-11,1
1,23,33,-1,0,2,0,6,1
-4,-7,-9,-10,-1,-1,-21,-1,1
-8,-25,-52,-9,-3,-1,-9,-3,1
-1,-6,8,-4,0,-1,26,1,1
-1,-3,3,-11,0,1,-5,-2,1
-2,-13,13,20,-2,-1,23,-6,1
4,-13,-10,-11,-3,1,28,-6,1
1,2,-3,1,0,-3,-48,2,1
-11,-9,-5,-2,-3,0,7,-1,1
9,54,-5,-20,1,2,12,4,1
2,-12,0,-7,-5,-6,2,1,1
-4,-10,-3,-4,-2,-2,8,9,1
-3,-15,5,16,4,0,-23,2,1
-3,0,1,-13,-2,-5,-24,-10,1
-8,-19,5,-1,2,1,14,-5,1
0,-15,18,10,4,5,-5,-6,1
6,17,-20,-1,-1,1,-5,-2,1
0,-14,2,2,0,2,47,-2,1
-2,4,20,-1,-3,-9,-97,-8,1
-4,-6,-50,-1,-1,-2,16,15,1
0,-19,-21,9,1,-2,-5,23,1
-11,-22,13,-7,1,3,13,-2,1
7,3,-8,21,1,5,31,-4,1
-4,-17,22,-22,0,2,-22,-21,1
6,11,0,-3,-5,-5,31,-5,1
1,0,-13,-36,-2,-4,-38,7,1
-20,-72,24,62,5,2,-5,-3,1
14,-4,-15,-11,-1,4,20,-5,1
3,14,-1,-4,3,5,21,0,1
1,4,15,-14,1,1,7,-7,1
2,19,-4,3,-2,-4,11,0,1
-7,-27,-18,2,-2,-1,1,9,1
-3,0,44,2,-1,0,-24,4,1
4,3,-83,3,-9,-9,-7,18,1
-11,-22,8,-12,-2,-4,6,6,1
-3,56,-41,-12,-5,-4,-2,-12,1
8,41,25,-9,-1,-3,-18,-7,1
-3,-3,34,15,1,6,29,10,1
6,25,-1,-16,-2,-2,-22,11,1
1,-11,11,6,1,-1,-17,2,1
-4,-6,3,-1,2,4,20,-12,1
-7,-33,-15,7,0,3,-8,-4,1
4,-4,-16,1,2,3,20,20,1
16,20,39,13,4,-1,-2,25,1
-10,-24,-41,-26,-5,-4,-16,-5,1
4,-9,9,28,4,4,21,-6,1
3,17,-5,-31,-4,-6,-5,-6,1
10,18,12,10,0,3,44,7,1
0,59,49,37,11,2,-61,12,1
19,4,-31,-15,-3,-1,27,-5,1
-2,-10,-52,-15,-4,4,28,2,1
1,10,27,2,-1,-2,-29,0,1
0,-37,-38,-2,-1,0,15,-8,1
-19,-18,37,7,-2,-2,-20,-5,1
16,62,4,-6,-2,-1,-4,-15,1
7,12,41,7,3,6,9,-6,1
-9,-21,-35,1,-4,-6,-57,-8,1
-7,-14,-21,2,0,-4,-5,4,1
-3,-9,11,-8,-1,1,46,8,1
-7,-15,-15,0,-2,-4,-36,7,1
4,22,29,2,-1,-1,2,7,1
-4,8,2,-31,1,2,5,-4,1
12,21,10,35,4,3,-14,-1,1
-12,-5,-12,11,-2,1,24,-4,1
3,10,-9,6,-5,-2,10,-10,1
17,28,50,9,1,0,2,15,1
-13,-42,-85,-26,-6,-4,2,-11,1
-9,-24,11,0,-5,-10,-14,-14,1
-2,-13,1,-7,0,1,-32,20,1
-5,-2,20,-5,-1,2,16,-4,1
2,33,-3,4,-5,-13,-90,-12,1
-5,-16,-9,16,1,3,33,9,1
-8,-27,-7,-28,1,2,3,-7,1
4,14,-9,34,-3,0,13,2,1
-3,-17,27,-8,0,-2,-12,24,1
3,0,-26,-18,-3,1,-14,5,1
2,0,12,10,4,0,33,12,1
-4,-8,0,13,1,3,-18,-3,1
-6,-2,10,-27,0,2,51,-7,1
3,-9,-3,26,2,-1,-35,5,1
0,29,3,-29,-2,0,36,-1,1
-9,13,-13,2,-6,-9,-44,0,1
-1,12,12,7,-1,3,-4,2,1
7,16,37,-14,5,3,16,-2,1
1,-12,-29,23,-1,-3,-25,-7,1
-20,-83,-67,-21,-6,-7,-6,-26,1
-3,-19,29,-13,-3,0,4,6,1
-4,-5,-11,2,1,1,17,-1,1
-5,-6,13,-7,0,2,28,-10,1
-1,-2,17,12,5,2,9,-4,1
9,0,4,-4,-3,0,21,-4,1
-1,15,3,25,-1,-2,4,-6,1
5,1,3,13,-3,-5,-12,-10,1
5,16,1,-19,-1,4,48,-2,1
-2,3,1,-13,-7,-5,-37,6,1
-2,1,-20,1,2,-4,-58,-11,1
8,23,31,6,-4,-1,-10,8,1
2,2,-14,20,5,5,18,4,1
0,-2,12,-17,2,3,31,-4,1
1,-12,-12,-11,-4,1,8,-3,1
-3,-33,-11,14,1,-1,6,-3,1
-2,7,16,17,-2,-3,-10,10,1
2,2,0,-16,-3,-1,6,2,1
0,-8,-3,-7,-4,-1,5,4,1
4,19,5,-13,-2,-2,4,2,1
-2,5,-13,17,0,1,-11,0,1
-5,16,23,18,-1,-3,-12,-4,1
-6,15,34,-2,3,1,23,4,1
-3,-24,-80,-2,-2,-6,-30,-19,1
-4,-3,-18,-22,-7,-8,-23,-2,1
-10,0,6,1,1,-4,6,-3,1
9,2,2,0,2,5,28,3,1
5,34,37,2,1,3,10,2,1
-1,-22,8,-9,-5,-5,-3,-6,1
0,1,-19,2,2,-4,-1,-3,1
0,0,5,-2,-5,-5,-51,-12,1
-5,-11,-5,3,2,3,31,5,1
10,29,12,-9,3,6,7,10,1
-4,-2,3,14,0,3,14,-29,1
-6,1,4,-20,-3,-3,-30,16,1
-12,-20,6,-2,-6,-3,4,-4,1
-2,3,20,16,-2,-3,3,-12,1
-3,-20,-63,-17,0,3,-3,-4,1
-1,2,-20,-23,0,-2,-10,-2,1
-4,-31,-13,7,-3,-4,-2,16,1
9,33,22,26,-2,-3,-18,-2,1
0,-31,16,15,0,2,-2,-6,1
8,2,-1,-8,-1,-1,13,-6,1
-13,-20,13,-15,-3,-2,-8,-33,1
11,31,-27,-18,-1,-3,-3,12,1
1,-14,9,-5,-4,-5,-9,9,1
5,17,-3,-15,-1,1,44,-20,1
-2,4,67,22,-4,-5,-73,1,1
-9,-15,-72,-15,1,-1,14,-2,1
2,5,-24,6,0,-5,-33,7,1
-4,-4,3,-7,-4,0,31,13,1
9,23,6,7,2,5,29,15,1
0,6,37,-7,1,-3,-39,8,1
2,10,9,3,-1,-5,-44,19,1
-3,-6,-6,13,1,4,32,20,1
7,9,-2,-8,1,0,-23,8,1
-3,-10,7,-1,-1,2,5,11,1
1,4,2,0,6,5,46,5,1
-9,-33,-12,-10,3,-3,-23,9,1
-1,21,-6,30,0,2,21,2,1
6,6,23,5,-6,-1,0,5,1
5,13,-5,-12,-3,3,13,15,1
10,45,-3,-2,-1,-2,0,-11,1
-17,-38,45,-7,-1,-3,10,-9,1
10,4,-12,4,3,-1,-6,-6,1
-5,-13,-18,-8,-3,-2,4,0,1
-8,0,17,7,-3,-7,12,-10,1
2,-5,-28,-13,1,-1,-16,-4,1
-7,18,49,5,0,1,-2,-6,1
-2,7,18,0,-2,-1,22,-9,1
-1,-20,-37,8,3,4,-1,-25,1
8,3,-6,-3,-1,2,22,18,1
-6,-4,-3,-8,0,-4,0,-17,1
2,-12,34,6,2,5,5,1,1
-4,-5,-47,11,0,-4,-24,2,1
13,70,18,-14,-7,-9,13,13,1
-9,-17,22,17,6,10,16,-2,1
-14,-77,-97,-13,-8,-8,-52,-4,1
3,8,43,-16,-7,-2,14,5,1
1,4,-7,15,1,2,0,-3,1
-3,-3,-11,-31,-1,-2,32,-2,1
3,39,54,35,1,3,-11,-3,1
-4,-10,-12,-5,-1,0,-12,-3,1
-1,-14,-22,-10,2,4,7,-4,1
-14,-47,-17,0,1,-4,-16,-7,1
4,25,7,1,0,2,31,0,1
0,-3,-4,6,1,-2,-24,-2,1
0,-5,-2,-10,0,2,24,0,1
6,20,9,7,1,3,21,2,1
-5,42,8,-6,-6,-10,-39,-12,1
9,11,8,4,0,1,-14,7,1
-5,-17,-16,6,1,-2,17,0,1
3,6,-9,8,0,-3,-11,10,1
0,15,42,-17,1,1,7,3,1
4,-14,5,2,-1,3,24,8,1
-3,-9,-11,17,2,2,-3,-2,1
-6,-23,-40,-9,-5,-6,-25,-7,1
2,-2,24,-10,-1,1,18,-2,1
-2,5,-18,3,-6,-2,-10,1,1
-5,-11,74,-18,2,0,-5,-3,1
-1,-6,8,6,-1,-1,-7,-5,1
-5,-26,-29,-2,1,3,16,-5,1
-1,11,38,8,-3,-6,-30,-1,1
2,17,-42,-21,-2,0,3,6,1
5,-11,12,26,2,2,19,8,1
10,14,13,0,-1,-1,15,1,1
7,-3,-35,1,-2,-3,-13,10,1
-2,-4,-16,-18,-3,-4,-4,-1,1
0,15,14,22,3,2,-18,7,1
2,5,15,-11,2,1,4,5,1
-2,22,6,-2,-3,-1,12,-7,1
5,15,23,13,-2,-3,-4,1,1
-2,-20,-88,-16,-10,-6,3,-4,1
-12,-2,13,-10,-5,-5,0,5,1
3,-12,25,0,-2,1,26,2,1
-13,-36,-26,-16,-3,-5,-21,-19,1
-1,31,30,-13,-4,-8,-8,-12,1
3,24,-15,11,2,3,-1,6,1
-6,-13,-12,3,3,4,15,2,1
2,4,-4,-1,-2,0,3,1,1
0,-3,-3,-8,0,3,34,4,1
-11,18,-17,-18,-2,-1,-5,-15,1
-3,-29,19,40,6,2,1,14,1
15,13,-34,-27,-3,0,7,8,1
1,17,13,-1,-10,-8,1,-7,1
16,2,3,8,0,1,15,27,1
2,3,-18,-9,4,3,-11,-1,1
-30,-58,-13,1,-4,-13,-49,2,1
3,-13,15,-9,1,1,7,5,1
-4,-12,-10,-5,-1,-1,17,2,1
-3,-14,-4,-17,-2,0,1,-2,1
7,37,27,42,6,4,6,6,1
-5,-16,-2,-22,0,0,-11,7,1
6,1,-3,16,6,2,-12,-7,1
-2,-9,-10,-13,-3,-1,8,3,1
-10,-28,-30,-8,-2,1,-7,-5,1
4,-7,18,4,1,2,14,9,1
-4,-13,17,8,-4,-5,-19,0,1
-18,8,13,-2,2,-1,-12,-9,1
7,-28,-61,3,-1,0,14,-9,1
-2,-5,4,-24,0,-1,24,10,1
0,-24,-23,17,-1,-4,-25,-21,1
-6,10,35,-6,-5,-6,18,-14,1
1,-3,12,4,4,9,47,8,1
-4,-2,-3,-4,-1,-2,-54,-2,1
3,9,-31,-15,1,1,3,-8,1
-3,-56,3,-12,-1,-2,-12,9,1
2,29,9,9,-2,-4,14,-12,1
9,9,-47,-8,6,3,-6,-19,1
4,9,67,17,0,3,7,-2,1
3,35,-3,-11,-3,-2,-15,-5,1
-2,13,13,-8,-1,-2,-23,-2,1
-5,-20,-4,1,1,-3,-45,3,1
-4,-7,-58,-3,-1,-2,-7,3,1
-6,-6,23,4,-2,-2,39,-9,1
5,10,-19,-1,1,4,-14,5,1
-3,28,51,22,0,-3,4,7,1
1,-3,-24,-3,-2,0,22,4,1
4,3,-7,12,1,0,-19,4,1
0,-10,-32,-6,-1,-1,28,5,1
2,6,-49,-9,-2,4,3,-2,1
5,0,-16,-12,-2,2,8,5,1
-6,17,82,16,-3,-2,-3,1,1
4,0,53,4,-2,0,-4,2,1
-6,-23,-19,13,3,4,20,13,1
-4,11,5,2,1,-4,0,2,1
0,-15,28,3,-3,-3,-6,-3,1
2,-4,-43,-4,-2,3,-2,13,1
-8,-25,37,-8,-6,-3,36,-9,1
0,4,-68,-18,1,0,-7,-20,1
3,23,38,3,-2,1,-6,-20,1
-5,10,-16,0,-4,1,2,-16,1
-9,-35,-34,-10,-8,-8,-15,-8,1
-1,-2,-69,-5,3,0,-13,-3,1
-5,3,21,9,2,0,9,13,1
17,43,60,13,4,4,10,-5,1
1,-6,-19,-5,2,3,-14,-1,1
-4,-4,36,2,-6,-3,12,-6,1
5,18,-35,-14,3,2,20,4,1
-10,-25,-11,4,-4,-11,-59,-1,1
-1,21,46,-28,-8,-1,2,8,1
-1,-9,20,29,4,7,11,3,1
-7,11,-72,-6,0,0,-5,-3,1
-5,-10,-9,-13,-4,-6,2,4,1
3,76,38,-7,0,1,4,-6,1
-6,8,36,-7,-3,-1,10,10,1
5,6,-20,3,2,2,-9,-13,1
-2,10,-12,-1,5,5,22,-16,1
-12,-37,32,10,-3,-4,-32,-16,1
-9,-19,4,0,-1,-5,-11,18,1
-2,-13,-16,2,-3,-5,-11,0,1
1,-9,8,1,1,4,8,7,1
12,4,-1,10,9,6,38,3,1
2,17,60,4,-2,-1,-11,-2,1
0,-40,-17,-5,-1,-4,-7,-5,1
-4,-16,-28,-8,-4,-5,2,-4,1
4,7,-11,7,3,3,-6,15,1
6,5,22,7,-1,-4,-15,-1,1
5,14,10,4,0,0,9,18,1
1,-23,0,5,2,5,5,13,1
-2,25,-13,-3,-3,-7,-1,-5,1
-6,-32,11,-28,-1,0,-5,-8,1
6,-11,-52,20,-1,5,81,5,1
-8,-23,-4,-2,-2,-10,-71,2,1
1,5,17,29,5,0,4,18,1
1,-46,-11,-14,-2,1,8,35,1
-6,9,-2,-10,-2,-1,13,4,1
-2,3,-9,5,0,-1,19,-4,1
3,-11,-2,0,-4,-1,17,0,1
-2,14,0,8,1,-2,-35,-4,1
-2,-8,-1,-1,-4,-5,-25,-4,1
6,27,21,3,-1,-5,-12,3,1
5,1,-18,-10,2,7,22,8,1
-13,4,67,11,-4,-4,3,-12,1
-2,-22,-8,-14,-5,-4,-18,-12,1
8,35,17,2,-1,6,18,12,1
-6,-4,-38,-12,2,-6,-23,-14,1
-1,-18,-17,-7,-1,1,8,-8,1
2,3,18,17,-1,-2,-18,9,1
-7,-7,28,-4,0,-1,20,3,1
-1,18,-3,-4,-2,0,-7,-3,1
10,10,-15,9,3,2,10,4,1
2,4,-6,-15,2,2,-5,-7,1
1,48,66,-1,-1,1,-5,-2,1
4,-12,8,-2,-2,-3,-2,26,1
-3,5,-14,8,1,0,38,-10,1
-7,0,-2,-1,-4,-4,-2,5,1
3,6,-11,-5,2,2,10,-2,1
-2,-6,-6,2,-3,-2,-44,-7,1
-1,6,-37,-1,-1,2,12,-6,1
-3,-2,46,1,-1,-6,-66,6,1
-3,-17,-26,-3,-2,0,-1,3,1
-8,-13,-23,-10,-4,-2,17,-2,1
4,5,21,11,2,2,-10,4,1
-8,-16,-44,-2,-3,-2,-2,-9,1
1,-16,-22,9,7,4,5,9,1
5,-5,28,-1,-6,-3,-3,-23,1
-6,31,-9,-8,-5,-7,-12,3,1
6,-8,-69,0,3,2,8,1,1
-9,8,1,-29,-1,-1,11,1,1
8,-4,19,16,1,2,3,4,1
-3,20,14,3,2,2,-4,2,1
6,18,-1,-10,-1,1,48,10,1
-18,-21,-15,8,-8,-11,-71,-6,1
4,-10,-1,11,4,4,6,-12,1
0,14,-8,-28,-4,-5,-18,-2,1
3,11,2,4,2,5,6,2,1
3,-8,20,2,0,1,18,-8,1
-4,11,-23,16,-3,-2,-21,-4,1
1,-8,75,18,5,1,30,4,1
-2,-57,-96,-13,-2,2,-22,-6,1
-15,-31,-30,-12,-10,-8,-3,-12,1
-5,-15,22,-5,2,0,25,2,1
-6,-10,-21,5,-6,-6,-27,-7,1
-1,12,49,-1,7,5,-2,8,1
5,4,20,-4,-2,-2,9,-9,1
-3,4,-37,-5,-2,-2,18,6,1
4,-4,19,2,-2,-1,-6,0,1
-1,17,22,-5,-5,-3,2,-7,1
6,-9,-12,16,4,5,15,12,1
-10,-30,-28,-30,-4,-2,-19,-13,1
2,-22,3,48,0,-2,1,-6,1
6,14,31,-3,3,1,-2,7,1
-6,16,-6,-9,-1,-5,-54,-12,1
5,45,59,27,-3,-3,-9,4,1
-2,-26,-79,-9,1,2,1,5,1
1,-3,-95,-18,-7,-5,3,-2,1
8,21,92,-1,-2,-4,14,1,1
-3,3,-12,13,4,1,-8,-10,1
3,-2,5,-18,0,0,-9,19,1
6,20,28,12,-6,-4,3,-9,1
0,-14,-28,-9,0,1,10,-9,1
-8,-1,7,-5,3,2,-3,8,1
2,-6,-2,-3,-2,0,17,12,1
-8,-19,6,-2,2,0,-2,4,1
3,-5,0,7,0,-1,13,9,1
-1,-5,-12,-6,-3,-2,-5,-14,1
-1,22,10,-8,-1,-1,-14,2,1
-17,-79,-20,3,-1,-3,-1,5,1
11,-28,-28,-2,3,7,23,19,1
-10,-57,-29,-10,-2,-5,-58,15,1
21,47,3,3,0,3,12,-13,1
5,36,51,12,4,-1,0,9,1
-1,-5,-3,6,2,5,24,-2,1
-1,-21,-14,-4,-5,-5,17,-5,1
-7,-9,-24,-9,1,3,5,5,1
-2,35,39,7,-2,2,-12,-8,1
8,19,11,15,0,-1,30,3,1
1,12,-22,-11,2,2,13,3,1
-11,-22,-9,-3,-3,-3,-2,2,1
5,18,-17,3,-1,1,2,3,1
-9,-13,-7,-19,0,-2,5,4,1
5,30,6,10,1,-1,-1,2,1
-7,-15,16,1,0,0,-3,-16,1
-4,-23,-46,-7,-3,-4,3,10,1
-4,11,22,-1,0,0,-16,-2,1
-1,-2,-20,-3,1,1,11,-7,1
-3,-8,24,-22,-7,-4,-5,7,1
7,22,40,26,5,2,-3,11,1
-8,-21,-47,-15,-4,-3,-3,-5,1
3,34,64,17,0,-1,-3,4,1
5,-28,24,4,2,-1,-23,-4,1
-5,-3,-63,-24,-3,-1,1,-5,1
-1,-1,-19,2,-1,-3,-19,-14,1
-1,-10,14,2,4,1,-17,2,1
-2,5,-27,-23,-1,-1,28,-8,1
9,21,10,-6,-2,-1,1,3,1
-4,11,59,17,0,-2,-1,2,1
4,40,-57,-17,-5,-2,10,10,1
-3,-24,-45,2,-1,0,-2,-6,1
2,2,30,-4,2,1,11,6,1
-1,-2,-16,-8,1,1,1,9,1
-6,-11,64,-11,-4,-2,8,-17,1
13,34,1,14,2,-2,-15,11,1
-25,-47,22,-7,-2,-1,-25,-20,1
5,5,-4,12,-4,-6,-63,-2,1
-4,-4,16,-17,-1,3,19,8,1
5,11,-20,1,0,3,26,1,1
-2,-7,0,15,0,1,-28,4,1
1,-2,-28,-7,-1,-2,-6,0,1
-3,-9,-42,-3,-1,-2,-1,6,1
-10,20,-32,-41,-2,-1,-8,9,1
1,5,20,22,1,1,8,2,1
-3,-9,8,-8,-2,-2,28,-6,1
11,21,18,23,-7,-2,8,8,1
1,52,-26,5,4,1,2,16,1
15,-33,-24,-13,2,1,9,4,1
9,20,-19,22,1,2,-2,-9,1
-22,-55,37,-19,-1,0,13,-21,1
-3,-12,12,10,-2,-3,-15,-18,1
7,34,27,-12,-3,-3,-4,-2,1
-8,0,-2,10,0,0,5,-15,1
-5,-7,-6,0,5,0,31,-1,1
2,2,44,19,2,2,2,-8,1
-6,-9,-38,-10,-5,-3,-3,-9,1
-7,-28,-32,-14,-3,0,22,-2,1
5,3,-17,0,-2,2,9,4,1
-3,-13,25,4,-1,-1,-11,-3,1
-4,11,44,-4,-2,-2,12,-3,1
-4,3,-29,-8,0,0,0,8,1
-12,-5,8,-6,-4,-3,-9,-2,1
-1,-15,52,1,-9,-8,-14,-17,1
3,4,-25,-29,-3,-3,-1,13,1
5,-21,-15,46,3,3,22,3,1
-8,8,-42,-16,-4,-2,12,-4,1
9,-10,20,20,-1,2,7,-7,1
-4,-13,34,0,-4,-1,10,0,1
2,10,31,-13,-4,-3,-18,10,1
6,-12,-53,-2,0,-1,-20,9,1
-8,4,12,-1,0,5,38,-10,1
-8,-22,-91,-4,-6,-12,-90,-8,1
1,6,31,-11,-3,-1,27,16,1
10,10,22,14,4,5,-1,2,1
-7,-12,-55,-16,-3,-3,12,6,1
4,17,48,17,5,1,34,5,1
0,8,4,-10,0,2,-11,9,1
6,17,12,3,-4,-7,-20,-3,1
2,-6,2,2,1,2,42,2,1
-6,-5,-31,-1,1,-2,-42,-10,1
1,-3,-3,-5,-1,1,10,0,1
4,-5,6,2,-3,1,16,14,1
-9,-11,6,-10,2,1,-20,-8,1
-1,-10,-21,0,-3,-3,30,-1,1
3,7,76,-15,1,-3,-6,-6,1
2,0,48,10,4,3,-11,-6,1
4,0,-61,0,2,0,-16,14,1
-7,-18,-47,3,-4,2,7,-9,1
-18,-31,59,-2,-1,-5,-9,-5,1
3,-10,-9,6,-3,-3,7,-6,1
-3,-16,11,-12,-8,-6,-19,-7,1
4,21,43,14,10,6,19,-5,1
-4,13,-100,-15,0,2,-1,5,1
1,8,50,10,2,4,0,0,1
-3,-19,-95,-12,1,3,-19,-1,1
-2,10,14,-1,1,-5,11,9,1
-3,-9,4,2,-2,0,-20,-9,1
1,5,-40,-14,-4,-9,-49,8,1
-7,-7,15,9,-2,-1,21,-7,1
6,10,28,0,-1,1,13,-3,1
-3,-1,0,7,2,0,3,1,1
-10,-14,-22,-9,-1,3,7,9,1
-12,-42,-1,-23,-3,-3,-22,-10,1
7,23,25,26,2,1,0,9,1
13,23,8,-7,1,-2,4,5,1
3,-19,-41,-5,-2,-2,5,-6,1
-7,-1,25,7,-1,-3,-8,9,1
-3,15,25,-20,-2,3,7,6,1
3,-12,-20,-9,0,0,-9,-10,1
11,38,24,11,7,6,6,5,1
10,14,-21,8,0,2,52,9,1
-7,-21,-36,-14,-6,-5,-34,3,1
3,16,21,7,0,3,-5,-11,1
3,30,-23,-1,2,3,-8,9,1
-30,-50,95,36,7,-1,-33,-23,1
29,61,-64,-4,-10,-6,21,3,1
2,13,-20,-11,-7,-3,7,5,1
4,-15,-34,-1,-4,-1,2,-10,1
9,35,-17,-16,-2,2,37,14,1
-30,-85,21,7,3,-2,-58,0,1
1,10,41,4,0,-2,-27,-2,1
3,8,6,-8,-5,-5,13,1,1
4,-1,-21,-8,-2,-1,-19,7,1
-1,14,25,4,-1,-1,22,-6,1
5,8,-32,0,-4,-4,18,11,1
-5,-13,30,-12,0,0,12,-37,1
-1,1,-11,1,-10,-11,-34,-14,1
-8,-5,-2,-1,-2,-3,15,5,1
-8,-22,-11,-1,-3,0,18,-4,1
-5,-8,-9,3,-4,-6,-54,8,1
3,11,-31,4,2,1,0,23,1
-6,-26,-29,-15,1,1,14,8,1
14,28,7,17,5,6,23,6,1
-5,-1,36,2,-6,-4,-1,5,1
10,-17,-105,-50,-6,-3,1,9,1
-9,-2,34,25,4,5,-5,-5,1
-12,-15,18,48,2,3,-9,-7,1
-10,-24,-63,-14,-1,-4,14,-15,1
11,29,94,-9,1,2,-10,-1,1
-4,-18,19,-12,-3,-1,2,-3,1
3,2,4,-10,-2,0,-1,-14,1
2,23,30,13,3,1,5,4,1
-10,-67,-31,-15,-2,0,5,-1,1
1,-5,-7,-1,-3,-2,-3,-4,1
0,0,0,-5,-2,-3,13,6,1
1,-12,-10,4,2,4,14,8,1
7,23,-8,4,1,-1,-21,19,1
6,23,43,1,-1,-1,-17,13,1
-3,-24,-69,-12,-4,-3,-7,8,1
7,0,49,-15,2,4,29,28,1
-10,14,-10,12,-2,-3,27,1,1
0,-8,-5,5,4,6,9,-6,1
-2,22,-16,-33,-4,-9,-20,13,1
5,32,17,38,-5,-1,2,29,1
5,-5,19,0,0,1,51,2,1
1,16,4,-2,-1,1,10,11,1
-9,-1,-9,-19,-2,-4,-16,0,1
-3,3,-66,-15,5,0,-34,-19,1
5,-6,58,37,1,-2,22,-9,1
2,49,-13,-1,1,0,-7,-1,1
7,-18,29,-10,1,4,22,-3,1
-2,-4,-16,2,-3,-5,-1,-10,1
3,34,29,2,0,-1,-27,3,1
-1,-14,10,-27,4,3,10,-12,1
0,-2,-15,26,2,2,-9,-11,1
3,-13,8,-7,-2,-1,5,2,1
2,12,-14,0,-1,1,-13,-2,1
4,-2,-1,0,-2,1,2,4,1
-4,7,24,8,1,-1,-3,-5,1
-2,-6,3,-3,-2,-4,0,13,1
2,-4,18,6,-2,-6,-21,0,1
-12,-41,-15,10,0,-3,-2,-23,1
-1,-36,-33,-16,-3,-1,-2,5,1
5,-2,9,8,1,4,62,-5,1
-2,-6,-10,0,-4,-6,-70,-9,1
-2,11,29,21,-3,-4,-7,-5,1
2,12,-64,-3,-3,0,9,-9,1
4,6,52,1,3,-1,-18,-13,1
10,24,10,8,1,5,35,1,1
4,-7,-35,-5,-2,2,5,2,1
4,1,14,-7,1,1,20,-8,1
-9,2,-2,-1,-4,-5,-1,0,1
0,3,-13,-2,2,3,7,-9,1
1,8,-30,-21,-5,-4,-10,-11,1
-1,-9,-6,7,2,2,1,7,1
-3,-15,-14,-4,-1,-2,-19,-6,1
-6,3,9,-3,-2,-2,-21,-14,1
-5,-9,4,4,0,-5,7,-3,1
-14,-32,11,11,-2,-5,-12,-2,1
-4,-9,-16,-8,-1,-1,-3,-7,1
-7,3,3,1,-4,0,10,4,1
9,-21,-15,-32,-2,-1,-14,5,1
-9,-7,0,52,-4,-11,-34,-15,1
-3,24,54,-25,-6,-4,-5,-5,1
-3,-32,18,24,6,3,18,16,1
12,26,-8,3,0,3,12,5,1
3,15,16,-25,3,4,-1,0,1
-8,-36,-45,-7,-5,-5,-9,10,1
0,7,-2,9,-1,-2,4,2,1
-2,-5,-23,-4,-3,3,14,3,1
1,-8,-24,-15,-4,-4,-63,2,1
3,4,-16,16,4,4,14,9,1
-9,4,-60,-26,1,-10,-26,1,1
1,-27,38,22,0,-3,-5,-6,1
7,7,24,-24,-2,3,17,9,1
-3,-16,-36,7,-2,-1,-3,3,1
-2,12,8,-3,-3,0,1,-1,1
-10,-14,-12,-2,2,1,0,-1,1
2,6,14,7,3,2,51,-1,1
0,13,-1,-42,-3,-7,-69,1,1
-7,-2,-17,57,-4,0,19,-25,1
13,7,50,3,-4,-3,16,-11,1
-1,4,8,-5,4,6,32,-1,1
-1,-2,-7,-3,0,0,7,8,1
-4,-12,37,-14,3,4,-16,-19,1
-8,-2,-22,-5,-2,-1,-10,26,1
-3,6,-14,9,0,-1,29,-9,1
7,-11,3,8,4,1,-64,-5,1
-1,-8,-15,-19,-7,-5,-5,10,1
-2,28,22,15,0,1,33,0,1
-2,-5,17,-10,-1,-3,-2,9,1
-2,-4,-20,11,0,2,22,-4,1
3,9,8,-10,1,1,8,14,1
-3,4,-11,-6,-2,-1,-5,-6,1
-2,-5,-13,-1,2,-1,-8,9,1
8,-9,38,-1,1,-3,10,-6,1
13,-1,-14,-9,-2,-4,-4,2,1
2,-6,-19,-3,-2,3,10,8,1
0,-3,1,-4,-4,-3,-30,0,1
-4,-8,13,13,3,2,14,-1,1
3,4,21,0,0,0,9,-9,1
6,3,-19,-3,1,-1,-15,18,1
-3,-1,2,-4,-2,3,25,6,1
7,18,-4,12,0,0,7,21,1
1,0,-11,-8,-4,2,24,2,1
-4,4,-5,-3,-6,-10,-62,-9,1
-9,34,-10,15,-1,-5,-4,-8,1
-7,-32,33,-9,2,5,27,-16,1
-3,-6,-16,-9,0,-1,-4,8,1
1,7,10,2,-2,-1,4,4,1
3,9,-18,-4,0,0,-7,-2,1
-6,5,-24,-10,-7,-10,-4,1,1
-1,-22,-6,15,2,1,-7,7,1
-7,4,-4,3,3,0,4,-5,1
7,-2,9,-5,-4,-2,0,3,1
-4,-3,-12,5,-3,0,11,2,1
-4,4,5,-8,1,-1,-15,0,1
-5,-13,-72,-1,-1,-3,-8,1,1
-6,0,45,0,1,1,3,-4,1
6,18,0,12,2,1,5,-7,1
-1,6,5,-3,0,0,3,4,1
-1,1,-3,2,2,1,0,-16,1
1,-7,-4,-1,-4,-3,-16,-1,1
-21,-42,-13,0,-1,1,-6,-11,1
0,-31,-39,-11,-7,-3,3,1,1
-4,-15,-7,-5,-2,-1,8,-2,1
-4,-7,1,-4,-4,-5,-1,-11,1
4,20,17,5,3,0,1,2,1
-4,12,9,-1,0,-2,-6,-8,1
0,2,23,2,0,1,4,-2,1
3,-10,-2,2,0,0,1,6,1
2,10,-15,0,-4,-2,-2,-2,1
-2,9,11,1,1,1,0,-2,1
1,3,14,-3,2,2,-2,-3,1
2,-11,-2,5,2,1,-4,6,1
7,-9,-2,0,-1,1,0,-7,1
-18,-43,-16,-5,-2,-3,-14,-8,1
0,19,22,-9,0,2,7,13,1
1,33,26,18,9,6,-8,9,1
25,44,-30,-4,-6,-4,3,-4,1
7,18,27,-3,-1,-4,7,15,1
-3,3,23,3,-4,-4,-1,-15,1
-1,-38,-59,-13,-2,-1,-1,-5,1
-9,-6,-21,-5,2,1,-6,30,1
-1,0,-9,3,-2,-3,7,-14,1
10,15,21,-2,-2,-4,-4,0,1
-1,16,27,3,-4,-4,-2,-5,1
-1,-5,8,2,3,8,7,1,1
3,6,-10,-2,1,4,-6,-7,1
-7,-12,-7,0,2,-2,-5,2,1
-3,-7,0,0,0,0,5,4,1
-5,-10,-3,-2,-3,-4,2,1,1
3,3,2,-5,-1,1,4,11,1
-3,-2,5,0,-1,0,3,-10,1
-6,-7,3,1,-3,-1,-8,-1,1
7,68,40,5,1,-5,-1,-6,1
17,18,23,-6,-1,-1,-8,-1,1
-7,-31,-50,-7,0,-2,3,-11,1
-5,-18,-27,-8,-4,-7,-11,12,1
-5,-17,-12,-1,0,1,-3,-7,1
-2,2,9,7,2,0,16,7,1
3,22,45,2,-2,1,13,16,1
6,-14,-26,-5,1,10,34,2,1
-16,-29,7,-1,-3,-8,-76,-3,1
-6,22,-4,-5,-3,-12,11,0,1
-10,-31,0,-1,-4,-5,-55,-5,1
4,21,12,-1,-7,-5,52,12,1
-3,-13,-7,0,0,3,-48,0,1
6,12,-11,0,-5,3,8,-4,1
-2,-12,-13,13,2,-1,-6,11,1
2,3,4,-11,-3,-3,-1,-5,1
2,17,9,5,-2,-3,26,-1,1
-4,10,0,6,1,2,-12,11,1
-4,-13,7,-7,-7,-5,5,3,1
8,6,-8,3,0,-4,-28,-11,1
-7,-38,-25,2,-1,3,41,-6,1
4,15,23,-5,3,3,-26,7,1
7,3,-52,-6,1,2,27,51,1
-7,8,29,6,-1,-3,2,23,1
-7,-15,4,-15,-2,0,6,-6,1
-3,-18,-1,1,3,4,6,-7,1
-2,38,18,-1,-2,2,31,-11,1
1,-41,-17,28,1,-2,0,-16,1
-16,-7,1,-13,-8,-6,11,-5,1
-6,-16,-5,8,0,2,11,0,1
5,6,4,4,3,4,-49,-13,1
-5,12,4,-18,-2,-3,-6,-2,1
4,6,-6,7,0,-6,-17,2,1
-10,-9,1,-7,-6,-9,3,-7,1
-1,-7,-3,-6,-5,0,28,-17,1
4,6,14,-2,1,6,15,2,1
7,3,-1,1,6,6,18,6,1
-2,60,7,-14,1,0,-4,7,1
4,1,12,38,5,3,-4,-4,1
7,28,56,-23,5,6,-8,6,1
-4,-56,-93,10,-2,-1,21,-6,1
2,6,19,-7,0,-4,-13,-1,1
0,7,11,6,2,-1,2,10,1
3,9,14,2,3,-1,1,-16,1
-4,31,27,4,0,-1,-7,13,1
1,-43,-22,4,0,2,11,-2,1
-1,-11,-9,-19,-2,-2,-7,0,1
-1,-1,-7,9,-1,0,-4,5,1
0,10,14,-14,0,0,-11,-1,1
-6,-19,-18,-12,-3,-2,-3,6,1
-5,13,21,11,-3,-8,-4,-15,1
-8,-32,-25,-10,-1,-2,-12,2,1
0,-13,17,7,-1,0,14,1,1
2,0,-34,-13,1,2,-3,1,1
-15,-25,-5,-12,-2,0,7,3,1
-7,-6,11,13,0,0,-22,6,1
-4,14,28,-6,-1,-4,-6,8,1
3,-2,-4,1,-1,-1,8,-1,1
-3,-23,-12,-10,1,1,21,-12,1
9,58,-1,4,-1,-4,-22,3,1
1,2,70,-4,6,6,20,14,1
-5,-25,-61,-9,-2,-2,-8,-15,1
16,48,-36,7,-1,1,-19,11,1
-11,-45,-16,-3,0,-2,20,-4,1
10,14,5,2,1,0,19,-4,1
-3,6,30,11,0,-2,-16,-21,1
13,48,27,-8,0,2,14,-4,1
1,-1,-18,-1,-1,1,-39,-11,1
1,13,-14,-1,-4,-4,-19,1,1
-10,-30,10,6,-1,-2,16,0,1
-19,-46,-7,2,0,0,-14,-10,1
27,48,15,5,1,3,7,-6,1
10,31,-30,-15,-5,2,28,-8,1
1,25,71,29,0,-1,-3,3,1
1,-39,-33,-18,-3,-1,-4,0,1
-8,4,-5,-3,1,-1,9,1,1
-1,-18,-16,-10,-3,-1,-8,-11,1
6,7,7,-2,-1,2,3,4,1
-2,14,19,2,2,-1,8,2,1
-16,-17,-20,-3,-3,-6,-13,-22,1
-1,-4,12,6,0,0,8,-14,1
0,2,-16,-3,-1,1,-12,11,1
-3,-13,-15,9,-3,-2,25,-22,1
-17,-17,-9,-14,2,4,9,-14,1
-4,-5,16,20,3,-1,-17,-21,1
-6,-13,-7,0,-1,-4,9,-7,1
-2,-4,6,6,0,-2,-6,2,1
-5,-2,8,6,-2,-2,2,12,1
-2,-3,-10,-29,-3,4,-4,7,1
11,10,11,16,0,1,-2,-6,1
9,27,-10,10,-1,-7,-3,-3,1
-3,-27,-46,-16,-7,-6,-8,2,1
2,-4,4,2,-1,5,13,19,1
-12,-40,-5,-18,-2,-2,-5,3,1
4,-18,8,19,1,2,-2,4,1
5,32,50,5,2,2,12,1,1
-6,39,-26,1,-4,-9,-4,-23,1
20,-4,-4,22,3,4,52,45,1
-7,20,2,-43,-3,-7,-75,-1,1
-16,-35,-5,24,-3,-11,-24,-1,1
5,7,2,8,-1,2,20,9,1
-4,-4,1,-3,-1,2,-8,0,1
3,-1,17,0,-1,3,27,9,1
8,3,-28,-12,-4,2,11,27,1
-7,9,15,-24,0,-4,-30,14,1
-2,7,17,27,1,0,-8,-17,1
-3,3,23,1,2,0,2,1,1
2,-21,-49,-7,2,4,2,-2,1
0,-16,-4,1,-1,0,19,16,1
-14,-9,-11,-11,-3,-7,-82,-9,1
4,18,18,-11,5,5,26,-12,1
13,53,17,9,-4,0,16,-10,1
-7,-67,-9,13,5,3,7,8,1
0,36,-25,3,-3,-6,3,-2,1
-3,-31,-17,-11,-2,-3,-11,2,1
-3,-14,23,-6,-3,-4,14,-3,1
0,4,-4,7,2,-1,-1,5,1
0,5,11,-7,4,8,51,-3,1
-3,-8,-6,0,-5,-10,-81,-3,1
-4,-12,6,-6,0,3,18,4,1
1,-1,4,8,1,0,-1,-1,1
2,8,27,-10,-4,0,0,6,1
2,-12,-59,1,1,7,40,13,1
3,15,-29,-12,-8,-5,-11,0,1
-7,-13,-7,-14,-4,-7,-19,-9,1
4,-44,1,-4,4,5,4,-2,1
-11,-14,19,7,1,-2,15,-8,1
4,17,11,10,2,-3,-20,-8,1
8,41,5,14,-2,2,3,-1,1
4,-1,-20,-4,-7,-6,-8,-7,1
0,30,1,-10,-4,1,14,7,1
-6,-41,-52,-10,-1,-3,-1,-2,1
15,32,-1,-7,2,5,2,6,1
-19,-29,-3,5,-2,-5,-18,-16,1
8,16,21,13,0,5,32,13,1
-2,12,26,3,0,-5,23,-8,1
5,1,24,-2,-2,5,27,9,1
-8,-25,-76,-11,3,-1,-58,-5,1
-4,24,36,4,2,2,-16,-10,1
-1,-38,-14,-3,-3,0,34,3,1
5,-5,-26,-7,-2,-4,1,-4,1
-11,-30,-26,6,-2,-1,19,-7,1
9,-11,-16,0,-2,-3,-4,28,1
-5,3,32,-12,4,4,-19,10,1
-2,-10,24,7,-2,-6,-24,-11,1
8,34,14,-5,2,0,20,14,1
-3,-12,-16,-6,0,0,5,8,1
10,31,30,7,-2,0,-1,-1,1
-6,-17,-10,-18,-1,-2,-17,9,1
-1,68,16,34,-1,-2,9,6,1
5,-6,5,6,-1,-1,8,2,1
-2,-13,13,5,1,0,-14,9,1
-10,-33,-19,11,1,2,18,-7,1
20,51,11,-22,1,-1,-29,5,1
-7,20,55,-2,-2,-8,-80,-24,1
-6,-54,-71,20,2,5,0,2,1
-5,8,-14,-54,-7,-5,-4,1,1
0,0,20,12,1,2,40,-2,1
8,-20,2,-10,-2,3,73,24,1
6,12,54,25,0,-3,-35,18,1
-4,6,16,14,3,3,7,5,1
-1,-17,-8,-16,2,1,23,9,1
0,2,-28,-3,-3,1,7,-11,1
-3,0,0,-53,-5,-3,1,15,1
0,-22,-31,48,-7,-11,-11,-12,1
11,16,84,5,1,3,9,18,1
-4,-20,-70,-5,-2,-4,22,-2,1
1,1,-13,8,-4,0,-28,4,1
15,38,19,-29,1,4,0,-4,1
0,-14,-5,-1,-3,-4,-4,1,1
-9,-17,19,-2,3,-2,-12,-17,1
4,36,16,16,4,3,24,-5,1
3,20,13,7,-2,3,34,-15,1
1,-11,-13,-2,-1,0,-17,-12,1
0,27,-6,0,1,-3,-44,25,1
-9,20,8,-1,0,-5,1,-5,1
-2,-2,-1,-4,-2,0,11,14,1
-9,2,11,-19,-6,-8,-72,-1,1
2,-6,-48,12,-2,3,21,-2,1
0,-20,8,-4,5,2,6,-5,1
-4,-8,-30,-4,-5,-6,-14,-7,1
3,7,-3,-3,-2,1,4,-1,1
-8,-32,-29,-6,-2,0,0,-13,1
-5,32,16,-27,-4,-3,-22,-5,1
-15,-23,-5,30,3,2,46,-5,1
-1,12,1,-16,-5,-4,-14,-6,1
3,14,58,7,4,2,6,-6,1
1,-22,-24,3,3,4,14,-1,1
4,24,-3,-29,-2,-2,-30,7,1
1,-11,-8,12,4,5,39,-10,1
-6,-39,-24,-1,-3,-3,17,-14,1
4,-2,-9,-2,-3,1,12,-26,1
3,1,16,2,0,-8,-4,13,1
-3,-13,-2,5,0,-2,-18,-3,1
-6,-5,15,-3,0,1,5,-18,1
-4,-11,7,10,-1,2,20,-11,1
0,-18,-16,5,1,7,26,3,1
-8,-1,-8,-5,0,-3,-6,5,1
-2,6,-3,1,-2,0,4,1,1
0,17,1,6,2,-3,-5,0,1
-4,-3,-10,-5,-3,-8,-75,-4,1
-1,-24,-19,-9,0,4,74,6,1
4,23,14,2,-3,-3,-3,3,1
-3,5,18,9,-6,-3,10,-3,1
-13,-33,21,-22,5,6,5,1,1
-1,-9,-41,28,-1,-4,-10,-22,1
12,24,17,-6,-5,-4,-2,-3,1
-2,-49,-25,-6,1,2,0,6,1
-7,5,16,12,3,2,-1,-2,1
1,32,13,-21,-6,-10,-26,12,1
-3,3,23,2,2,6,12,4,1
8,3,-6,4,3,-1,-28,38,1
6,11,-9,5,0,1,0,0,1
4,18,10,3,3,3,3,-11,1
7,31,2,16,-1,-1,-13,1,1
8,19,14,-11,3,3,53,3,1
-19,-44,-10,5,-5,-14,-83,-14,1
6,4,-14,-11,2,5,28,22,1
-8,-2,23,-20,3,2,8,11,1
5,3,26,16,2,2,-19,-20,1
12,47,-28,12,0,-1,25,7,1
-6,-32,-23,-4,-3,-2,-6,0,1
-2,52,24,-10,-3,-7,-12,-9,1
-4,21,27,-8,-5,-2,2,19,1
11,35,1,-7,-2,-3,4,1,1
-4,-40,-46,-5,-5,-2,-12,3,1
-1,-25,-18,3,4,-2,1,8,1
-5,2,4,0,-6,-1,-29,-1,1
-8,-3,22,10,4,3,71,-22,1
0,11,15,5,0,3,-10,-11,1
-3,-20,-21,-10,-2,-3,-19,-4,1
-2,-2,-12,8,-6,-1,8,-7,1
2,-14,10,-8,-2,-1,4,3,1
-7,-14,-11,1,6,5,12,3,1
-1,-10,2,-9,0,3,20,13,1
-1,22,33,9,-1,-4,-16,2,1
8,-1,-31,25,0,2,-3,-4,1
-16,-25,35,-6,-3,-5,4,9,1
0,-14,-8,3,0,3,-3,0,1
0,-24,-21,2,2,2,6,3,1
3,-13,26,4,3,0,-21,30,1
6,56,37,0,-4,-4,7,-7,1
6,6,-19,-2,2,5,7,5,1
-19,-14,-22,-6,0,-6,-9,-5,1
1,-3,22,-7,-3,1,-3,7,1
-3,-8,-34,-13,-5,-2,-8,-1,1
9,25,1,13,5,4,3,16,1
-2,-21,-9,-12,-7,-10,-4,-8,1
2,8,-21,-4,-3,-4,-8,13,1
-6,-3,2,-5,-4,-10,-59,-2,1
-7,-9,14,5,-3,-2,3,-14,1
7,10,-9,-1,7,6,7,19,1
-3,-5,2,-5,0,-1,-11,-17,1
9,-5,18,5,-3,2,47,12,1
-5,-8,-5,4,-1,0,-3,0,1
-3,4,-4,-11,-3,3,11,-2,1
3,-20,0,5,2,6,-5,-25,1
0,-2,17,-4,4,3,2,-2,1
-5,0,-26,-6,-7,-8,-9,-29,1
4,3,-8,-1,-2,-1,-30,-3,1
2,23,30,-13,-3,2,5,12,1
-5,5,-51,-23,-6,-3,-6,-26,1
-3,-9,45,19,3,2,3,-2,1
-7,-43,-45,1,0,-3,-5,-18,1
3,12,-12,14,-3,-3,1,4,1
7,10,19,3,4,7,4,3,1
1,-5,-22,-8,-2,-1,-14,-31,1
-2,16,11,-14,-2,-1,-1,0,1
1,7,6,12,5,4,-6,-9,1
1,15,-3,1,-2,0,23,1,1
0,10,-10,17,0,1,4,3,1
-2,-8,1,-19,-1,-3,32,-2,1
-1,-10,-10,-3,0,1,-1,10,1
10,3,4,21,2,2,-2,12,1
6,-3,29,0,2,0,2,5,1
-5,6,18,-6,-2,-1,5,-15,1
-6,-25,-43,-19,-5,-4,9,-1,1
12,40,27,27,0,-1,-5,-3,1
-15,-23,-35,-10,-6,-6,-8,9,1
13,29,-10,17,-1,1,-2,6,1
-3,16,29,-1,1,3,3,0,1
2,-8,-13,-2,1,0,-4,-14,1
-4,-22,-6,-9,-2,-1,-9,6,1
-11,-18,-7,6,-1,-3,11,11,1
-3,-19,-6,-5,-2,-3,-9,-3,1
-3,-18,-7,-7,1,3,1,-1,1
-2,16,12,-2,-6,-7,3,14,1
-7,-2,32,3,7,10,18,10,1
-9,-13,-83,-42,-4,-12,-23,-36,1
-18,-17,38,41,2,0,24,-10,1
5,-42,-10,1,2,0,-4,-3,1
-5,-31,-67,-8,-8,-7,-16,-12,1
11,16,50,5,1,3,17,19,1
-4,-6,-30,-10,-1,-2,-12,6,1
-2,0,14,-7,-2,-1,-5,20,1
4,16,24,6,-4,-8,-1,-11,1
-2,-3,2,8,0,3,10,7,1
-1,-9,-7,-13,0,0,-6,7,1
5,33,21,4,-1,3,14,11,1
8,-4,-6,-3,2,-4,-47,1,1
-7,3,2,7,-1,2,7,3,1
7,28,19,-14,-6,0,20,-4,1
10,28,-1,-12,1,1,-13,-12,1
0,3,4,7,0,1,16,17,1
-3,-11,-15,1,-2,-5,-42,-7,1
2,-7,5,-3,3,0,53,-1,1
-6,-19,8,1,-8,-8,-35,-15,1
2,-26,-41,-13,-2,2,16,8,1
3,1,38,10,3,3,4,2,1
-6,-35,-26,-5,-4,-3,14,11,1
-8,21,-7,11,3,-2,-4,-15,1
2,13,16,-6,-2,-1,-7,10,1
8,8,24,4,1,4,21,14,1
-5,-23,-10,0,-1,-3,-47,-3,1
11,25,33,-2,0,1,15,3,1
-1,-4,-17,1,1,2,-20,-1,1
2,34,-30,3,2,2,9,0,1
-5,-11,17,-6,-3,-5,-23,8,1
8,-2,-6,4,-1,-1,16,28,1
-6,3,16,3,2,-3,-17,-12,1
-10,-6,-2,-4,-4,-2,2,-3,1
-3,-13,-6,-1,1,1,8,-1,1
-8,-35,-25,-3,2,0,-2,-3,1
0,2,-4,3,1,-1,2,-16,1
-2,-5,8,-3,-3,-3,-14,6,1
-14,2,13,9,-4,-3,-16,2,1
-5,0,18,-25,-2,0,5,-3,1
2,7,-21,-2,-1,2,26,11,1
-14,-10,-4,14,-3,-4,-14,-8,1
-7,-24,2,-2,-2,-4,-14,-10,1
5,5,-2,-5,0,0,14,-6,1
-12,-3,32,14,0,1,6,3,1
3,-4,-8,-12,0,0,10,-3,1
7,15,-11,1,0,2,1,6,1
-9,-12,-4,6,-1,-5,-34,-8,1
-13,-46,-1,1,-4,-2,-2,-6,1
1,-17,-8,-7,2,0,1,-7,1
5,10,-3,-2,5,9,83,-5,1
-2,-6,14,4,-1,-1,-60,-5,1
15,-8,-11,-6,-5,-5,-16,-8,1
0,0,2,13,-2,-4,-15,6,1
0,-17,-10,-7,2,2,3,-3,1
-7,-26,-16,1,-1,4,29,5,1
1,16,-21,-7,-2,-1,-9,-3,1
4,9,16,5,-6,1,20,-3,1
5,27,40,5,1,-5,-63,-4,1
0,-13,-64,9,0,2,-2,-6,1
-2,2,7,-13,-7,-4,1,3,1
-11,-32,-18,-4,2,1,3,3,1
-1,4,-5,-4,-1,3,34,9,1
9,14,0,-4,-4,-6,-22,10,1
0,2,14,-6,2,2,7,6,1
7,43,0,-4,-1,-2,-4,-8,1
4,3,9,21,-2,-1,-6,4,1
3,-13,-17,-7,5,5,19,8,1
7,35,21,22,4,8,45,19,1
-13,-18,9,-9,-4,-15,35,0,1
17,-7,-10,-15,-1,-1,-26,13,1
0,12,4,8,0,3,15,-1,1
5,27,22,3,4,2,9,-7,1
0,-7,-1,-12,-1,5,4,11,1
-4,8,-28,2,-2,-6,-17,-8,1
-5,-14,10,-6,-5,2,35,-7,1
5,-4,29,13,-2,-2,-23,-6,1
0,-2,-31,-10,-6,1,-7,1,1
-10,-31,-42,-12,-5,-3,-10,-3,1
9,29,26,5,1,-1,2,-7,1
2,42,1,-11,1,0,-1,-3,1
7,25,22,2,3,2,-1,0,1
-1,-25,-25,17,0,0,5,-3,1
-6,-35,1,-4,2,-4,-11,41,1
-13,-23,-5,0,-6,-9,-20,-15,1
0,-12,13,-16,-4,-10,-56,-17,1
-2,36,25,6,-2,0,-7,6,1
-2,15,-4,-6,-4,-2,30,-2,1
3,-6,4,-8,4,-2,-29,-3,1
-9,-17,19,7,-3,0,-1,17,1
-5,-10,0,-10,3,-3,-11,-24,1
-4,23,-18,-6,-4,-2,-14,-10,1
2,38,18,-6,-1,0,21,14,1
6,-11,-62,6,-2,3,10,-4,1
5,21,33,-16,-1,-2,-11,3,1
0,2,20,18,2,0,12,-7,1
-10,-49,-6,9,1,-2,30,-2,1
-4,-28,-8,-15,-3,-2,16,-2,1
2,3,3,-1,3,4,-7,13,1
8,5,-16,-1,1,0,-4,-1,1
-10,-43,-10,-9,-6,0,8,-3,1
-1,16,24,16,0,-3,-8,1,1
-1,-2,-17,-6,-2,0,14,9,1
-7,-12,4,-3,0,-1,9,-3,1
8,30,-1,4,1,3,-10,8,1
1,2,9,-15,-1,-1,4,21,1
2,-3,21,-8,-1,0,-11,-14,1
-4,-7,-86,4,-2,0,27,-15,1
3,-15,3,10,2,-2,-33,-9,1
2,-4,12,-2,-2,-4,-1,-7,1
-3,1,4,-7,-2,-1,30,0,1
1,5,4,0,0,-1,-11,-6,1
-6,-25,-10,1,4,3,16,4,1
-7,-25,-10,-11,-2,-1,-13,2,1
4,22,-5,-3,3,2,1,-2,1
2,-25,20,3,-1,-3,0,2,1
3,1,-13,-14,-5,-2,-19,10,1
1,19,-40,18,5,-1,5,7,1
-7,-16,6,-15,-2,-3,14,11,1
-10,6,10,9,-1,-1,-50,-4,1
13,17,38,-4,-2,-5,-8,2,1
8,70,47,6,0,2,5,0,1
-1,-10,-20,3,-3,-2,-17,-11,1
10,4,-12,-29,-3,1,10,-3,1
-7,57,14,5,-3,-3,8,0,1
6,-6,-11,6,4,3,-7,-3,1
-2,-9,-2,1,-2,-1,-4,6,1
-6,-6,-2,-6,-5,-5,16,5,1
7,29,34,7,1,4,0,4,1
-4,-27,-96,-7,-2,-5,-15,-12,1
-2,4,16,-2,-4,-2,2,5,1
-1,-8,-2,22,-1,-5,-26,-5,1
4,-28,-46,-23,-2,2,10,-3,1
-2,3,43,10,0,2,43,5,1
0,8,17,3,-4,-4,-23,-3,1
4,13,0,5,0,3,25,-4,1
-7,-10,-9,4,2,-4,-19,-12,1
6,8,9,-7,-1,5,15,-13,1
-2,-8,3,15,1,-1,-1,-3,1
-20,-11,16,-16,-3,-3,0,6,1
8,23,-17,30,-2,-2,-6,1,1
2,-26,16,-9,2,0,24,8,1
4,7,-13,7,-2,-2,-3,3,1
1,7,-4,7,-1,2,15,-2,1
-9,-33,24,-17,0,1,-2,8,1
-1,46,12,8,-2,-4,-64,-8,1
0,-10,-52,-5,-1,-2,3,-8,1
5,10,11,-7,-1,0,8,5,1
-1,-21,-1,2,1,-1,2,-9,1
-2,-7,-8,-4,-1,-2,-17,4,1
-4,-37,16,3,2,4,22,-5,1
-11,-8,-5,-15,-3,-6,-33,-13,1
7,19,10,13,4,3,25,0,1
0,33,20,-4,4,1,-5,-6,1
-4,19,-11,5,-6,-5,7,-5,1
6,-13,-3,-9,-5,0,25,7,1
-5,-16,-13,9,3,1,-33,0,1
-1,4,3,-5,8,1,-26,0,1
-9,2,0,-5,-7,-4,38,-8,1
3,47,24,6,-1,4,17,40,1
4,-14,-8,-12,-4,-6,-9,6,1
-1,-9,-4,7,-5,-8,-23,-14,1
2,5,10,-18,1,1,-25,-8,1
4,-10,-6,8,-2,-1,-9,-6,1
-2,-22,-38,-6,-1,6,25,-9,1
3,-4,13,5,0,4,28,13,1
-1,24,6,-2,4,0,-16,-1,1
0,-27,-15,-16,-1,-3,-6,-18,1
-17,-39,-35,3,0,-3,-4,-11,1
3,-21,10,-5,-7,-3,6,-6,1
5,45,21,-1,-3,-1,-3,13,1
3,8,21,13,9,8,23,13,1
-1,10,-2,-4,2,-4,-61,-2,1
-2,-9,2,1,-2,1,13,10,1
2,-5,13,1,2,4,12,14,1
-4,-10,-10,-3,1,-4,-17,-3,1
10,12,-28,-10,-5,0,14,7,1
-9,-36,-5,5,1,3,18,-6,1
6,2,-18,1,0,-4,-11,6,1
-13,-32,28,-15,2,-3,-15,-25,1
-3,-28,-32,-25,-2,0,27,4,1
-7,0,-2,28,0,-3,5,2,1
10,5,17,2,0,1,26,5,1
-13,-52,-9,19,-2,-4,-49,-6,1
-5,15,13,7,-2,1,18,-3,1
3,-3,-1,-15,1,4,10,8,1
1,-15,-24,10,5,3,2,-9,1
-3,0,14,2,-4,-1,-2,3,1
4,19,21,10,3,2,-13,-4,1
-3,-30,-33,-4,-6,-2,8,6,1
1,7,25,3,-2,-1,-5,8,1
10,27,14,6,5,5,6,7,1
-4,-9,-16,-26,-7,-9,5,5,1
-7,4,43,0,-1,-2,2,-2,1
-7,5,-29,-9,0,-2,-27,-5,1
9,63,-7,-9,-3,3,41,-2,1
8,19,9,-9,1,-6,-63,-3,1
7,3,1,9,-2,-2,12,4,1
0,-2,48,6,0,4,21,0,1
3,1,-72,-12,0,4,5,2,1
-12,3,-7,17,-3,0,21,-13,1
4,14,-16,-4,-2,-6,-23,2,1
-4,-42,-6,-4,-1,0,-12,-5,1
0,-18,-13,-6,-3,-8,-17,34,1
-5,6,48,8,2,5,20,9,1
20,10,-37,-9,-1,2,-1,-6,1
1,3,0,25,5,0,3,-3,1
-23,-64,-15,-2,-3,-3,6,-14,1
3,1,8,-2,-1,0,5,8,1
-5,-7,1,0,0,3,-3,0,1
-6,-7,10,-21,-7,-3,-13,8,1
16,60,24,36,6,4,3,-12,1
-2,-19,-66,-3,2,0,7,-14,1
-1,13,25,-3,0,2,43,2,1
10,29,-11,-1,-3,-7,-27,7,1
-2,-19,26,-4,-1,0,-4,5,1
-10,-18,19,-3,-4,-2,14,3,1
-9,17,31,-1,-2,0,3,11,1
7,11,-79,-17,-1,1,-5,-11,1
-3,-51,-13,-6,-1,1,4,-7,1
2,18,18,4,-5,-10,-13,10,1
-9,0,-4,10,0,0,-20,-21,1
-12,-15,30,-9,0,-1,2,-5,1
9,39,36,4,2,1,-18,-23,1
-6,-50,-47,-6,-1,2,37,-7,1
5,-6,-19,-8,-1,1,29,0,1
-3,-10,1,-14,1,2,-7,2,1
-2,-5,-13,14,-1,-1,15,1,1
4,20,32,2,0,4,-4,16,1
-2,-13,6,-3,-1,0,-5,2,1
13,51,57,15,6,3,-4,9,1
-16,-56,-84,-11,-6,-7,-15,-10,1
-2,-5,15,-8,2,4,7,0,1
2,9,-23,-13,-5,-9,-20,10,1
-5,-19,2,6,-5,-4,1,2,1
7,31,38,-3,2,-3,-10,-9,1
4,-26,-22,8,0,-2,-18,7,1
-24,-64,16,-6,0,-2,-14,-4,1
4,10,-31,-7,-3,-3,-26,-9,1
-9,-12,-11,-3,-4,0,73,7,1
2,7,-17,0,-4,-7,-49,-7,1
4,-2,10,3,-1,-3,-5,-12,1
5,15,3,-2,2,3,15,-1,1
-1,1,10,0,0,3,0,0,1
4,33,15,1,0,2,14,2,1
-7,-27,-8,-2,1,0,-15,-9,1
-11,-64,-15,10,1,0,-10,-23,1
14,37,16,-4,-4,0,-7,19,1
-1,-9,-13,-12,-1,-5,-19,1,1
2,26,-11,18,-4,-4,9,6,1
-15,-29,-16,-11,-5,-9,-29,11,1
4,30,24,14,1,-3,-12,10,1
2,-14,13,-3,4,4,19,-5,1
1,25,-2,-15,3,2,-2,-2,1
-11,-16,8,31,-3,1,8,3,1
5,29,21,-7,3,7,1,8,1
22,40,3,-11,-4,-2,1,0,1
-22,-45,-11,-6,-3,-6,-16,3,1
8,38,5,17,-1,-1,9,-10,1
-1,-45,-7,-7,5,2,0,-9,1
-10,21,7,6,4,5,18,2,1
6,16,5,-2,1,0,-7,-10,1
6,4,4,-12,2,4,32,-3,1
-6,-40,-52,-6,-5,-6,-58,-4,1
-5,13,41,1,-1,-3,-1,4,1
2,-2,-26,4,1,1,-7,7,1
-4,2,-4,-4,-2,0,27,11,1
6,52,27,-17,1,3,82,4,1
-1,-34,2,30,-1,-7,-58,-12,1
7,23,38,-40,-2,-1,3,1,1
0,-19,-37,9,-2,2,5,5,1
12,54,49,5,-4,-1,-4,7,1
-15,-51,-59,-19,-6,-1,17,-7,1
-5,-18,12,14,1,1,5,-4,1
0,-7,-31,-18,-3,0,-1,2,1
-12,-26,2,-11,-4,-9,-35,0,1
-11,3,26,2,1,4,21,10,1
8,6,-11,15,-1,-3,-15,8,1
0,25,20,-16,3,3,9,2,1
-6,-7,-5,30,-3,-3,-9,-9,1
-3,23,-2,-27,-5,-2,21,2,1
12,2,-13,5,3,4,7,-6,1
-6,7,12,4,-4,-2,60,4,1
4,12,-3,-20,0,2,-6,16,1
0,5,-3,22,3,-3,-16,-4,1
-2,-33,-27,-8,-1,1,-5,2,1
-8,-32,2,-3,-6,-5,0,-14,1
10,-4,-4,-7,4,1,1,8,1
13,25,59,15,3,2,10,9,1
-4,-34,-65,9,-1,2,9,20,1
11,47,24,-7,1,-1,-32,8,1
-10,-32,-32,2,-4,-7,-17,-8,1
-7,3,14,-11,-5,-4,-3,-19,1
-3,25,14,2,-5,1,1,-6,1
7,23,10,1,4,4,-27,5,1
10,17,12,-18,-8,-2,4,-6,1
6,17,7,10,0,-6,-7,11,1
10,38,18,0,4,6,16,10,1
-8,-19,-19,-24,-6,-9,-42,-4,1
-7,-34,-22,-2,-12,-10,6,-9,1
-17,-41,-30,8,10,4,-1,-12,1
9,35,31,-17,-6,-8,-2,-13,1
6,-8,15,19,0,0,-43,9,1
-5,4,8,5,3,-1,-14,40,1
2,4,-13,-2,-2,3,22,-12,1
-3,-1,22,4,0,-1,3,6,1
-15,-32,-20,5,-1,-2,23,8,1
-6,15,-5,14,3,-1,-7,-18,1
8,46,41,-4,2,9,28,-15,1
1,-20,-30,2,-2,-7,-7,-10,1
-8,-38,10,12,8,9,7,-26,1
-6,-25,-18,19,3,6,25,-1,1
-5,-29,-26,15,-11,-10,-15,8,1
-12,5,53,19,7,4,13,-2,1
1,-43,-94,-15,-7,-4,-1,-4,1
2,4,24,-3,4,1,25,-8,1
-5,-10,-11,-4,-2,3,11,2,1
-2,4,-4,-2,-2,1,23,7,1
-8,-4,25,11,5,-2,-3,-3,1
0,24,12,-5,1,6,10,9,1
6,-18,-23,-7,-5,1,11,2,1
0,6,8,-11,-4,-7,7,9,1
8,35,14,-21,6,-1,-2,-2,1
-10,29,-1,21,-3,-5,-23,-10,1
-6,-12,7,-6,-1,-2,7,12,1
2,15,-1,4,-1,3,-16,7,1
-3,-3,-46,0,-5,-5,-4,42,1
-12,-23,-7,-13,-4,1,-8,-9,1
5,14,-12,0,-1,-5,19,10,1
-5,-3,2,0,-6,-4,-52,4,1
4,33,27,-22,0,2,19,9,1
5,16,-50,0,-3,-1,0,-1,1
2,6,17,-12,0,5,8,12,1
-3,-61,-20,-6,-1,-2,-11,-15,1
-2,-1,19,31,-2,-3,14,-18,1
8,14,14,-18,-1,-1,-23,-1,1
2,12,11,3,3,2,1,-3,1
-6,11,-19,-6,-1,2,3,1,1
5,36,-16,5,-1,1,-20,-11,1
1,-44,-10,0,2,2,49,1,1
-5,-33,-15,5,0,-1,5,-6,1
4,15,7,-23,3,4,15,-12,1
3,7,13,12,-8,-7,-3,-6,1
2,-5,6,-2,1,2,0,-5,1
-7,-20,-5,-7,2,-3,-21,2,1
-3,-6,-10,8,3,0,-5,-25,1
-9,-30,17,1,1,0,10,-7,1
8,-4,-25,-5,-2,-1,8,-1,1
1,0,6,2,-2,-4,-15,-4,1
-5,3,-18,5,-1,1,5,-7,1
3,3,3,-4,0,0,-6,0,1
-6,-3,19,5,1,-1,-12,-3,1
-1,16,-3,-5,-4,-4,-55,0,1
-2,4,-2,4,-2,-4,11,-10,1
1,-2,11,-5,1,2,14,12,1
4,6,13,-3,0,-2,-9,0,1
-2,6,-14,-4,-1,-1,0,-4,1
0,-21,-6,12,-2,-1,-16,5,1
-5,-8,-3,1,-3,-4,-11,3,1
12,30,16,24,2,2,-10,-1,1
2,-15,-73,7,-7,-3,8,0,1
3,-15,72,4,0,-2,-5,12,1
-8,-40,-100,-16,0,1,9,-13,1
-2,2,15,7,-5,-2,11,-6,1
-7,10,31,-12,3,-1,-11,-6,1
-1,9,0,4,0,-2,8,-10,1
3,9,-16,-16,-6,-3,-41,-9,1
-4,-5,22,-7,1,-1,5,8,1
0,9,6,2,2,3,30,-11,1
3,14,12,-1,-1,-4,-18,29,1
3,19,36,3,0,2,5,-7,1
-4,-27,-34,-14,-1,-4,-12,-5,1
2,10,20,9,0,-2,-4,5,1
0,2,-14,-5,0,3,6,-11,1
-5,1,14,5,-3,1,16,6,1
18,59,9,-6,-3,-4,0,14,1
7,4,5,-8,-2,-6,-52,4,1
-5,-3,-1,-17,-6,-2,12,8,1
3,-2,1,17,-1,-3,-2,3,1
-1,5,59,17,5,8,-1,9,1
17,43,-57,-25,3,4,6,5,1
-18,-25,-22,17,0,-4,2,-1,1
4,-9,22,-1,1,-2,-5,1,1
-12,-14,3,8,-1,1,-13,4,1
-3,24,34,-2,-8,-5,13,-10,1
5,-32,-97,-8,2,3,1,-3,1
-1,5,14,-11,-3,-1,12,9,1
-5,-30,-16,1,7,2,13,-4,1
-7,-4,30,3,1,3,10,1,1
7,33,15,4,-3,-4,15,3,1
-11,-24,3,2,5,-6,-53,-1,1
0,-1,-23,-12,0,-2,-7,-9,1
1,-11,12,15,2,2,8,11,1
3,5,12,-3,2,3,5,8,1
7,7,-13,-14,-1,4,9,7,1
-6,7,22,14,-9,-10,-20,-5,1
2,-7,-31,1,3,5,16,10,1
-2,-23,-9,1,-1,-8,-24,23,1
-10,-15,14,-13,-5,-4,2,8,1
-15,-37,30,-29,-5,-5,-16,6,1
-26,-84,-1,28,3,3,1,-9,1
4,18,-42,-20,-5,-2,-2,13,1
-4,-1,-8,20,4,6,20,5,1
6,13,6,-16,1,-2,-14,10,1
2,-3,22,-2,-2,0,27,4,1
-2,8,35,1,-3,-8,-52,-1,1
-5,2,-3,-5,-2,2,12,3,1
-5,-17,-17,9,-2,-4,-14,-9,1
7,25,3,-15,0,0,2,-10,1
3,13,-17,4,0,0,10,-13,1
3,4,-17,5,-2,-3,9,9,1
0,-14,-11,16,4,5,5,3,1
21,48,-23,14,-4,-6,-18,9,1
15,31,62,-2,2,2,3,2,1
-3,-18,-55,8,2,-1,-8,-4,1
-3,13,-47,-27,-3,-3,8,3,1
-4,16,7,-26,0,1,-5,-12,1
4,27,21,31,4,3,12,0,1
5,12,24,-9,-2,-4,-1,-5,1
-5,28,-2,1,-4,-2,28,5,1
0,-17,4,-7,-3,-1,-17,-10,1
0,-8,-13,-12,8,8,4,-12,1
-5,-19,24,0,-1,-2,4,-11,1
-10,-37,-12,-5,-1,0,8,-2,1
-2,-23,-21,4,-4,0,10,0,1
-11,-23,-11,-4,1,-6,-11,-20,1
2,17,-17,-7,-5,-3,18,12,1
16,-4,5,5,2,8,0,-9,1
-3,-1,12,1,1,1,6,-5,1
-9,-2,27,4,0,1,-14,-2,1
9,24,-2,-3,4,3,6,-1,1
-2,-6,-7,-37,-5,0,-16,-5,1
-1,12,-13,27,-5,-4,39,-3,1
-7,-51,-14,-5,-5,-3,17,3,1
3,13,28,0,-2,-1,-2,-3,1
11,17,28,13,10,7,4,-6,1
19,46,-29,-13,-3,2,15,-1,1
-11,-21,-3,9,3,0,9,-6,1
-2,17,7,-33,-6,-7,-38,2,1
4,11,2,1,-1,-4,-57,-1,1
1,10,1,7,-1,-1,-4,-1,1
0,11,-28,-3,-5,2,32,9,1
3,1,22,-3,2,4,-6,8,1
0,-11,-17,15,-2,-7,3,7,1
-5,-11,28,-2,-1,-3,-6,11,1
1,7,1,-17,-7,-4,-17,1,1
-1,-5,23,45,4,3,15,-12,1
4,6,-15,-22,-3,3,3,17,1
-25,-50,-5,19,-3,-7,0,-12,1
3,-31,2,-1,0,1,6,-5,1
5,16,-9,5,4,2,-38,-13,1
-9,-17,20,-7,-4,-4,6,-9,1
-10,-54,-10,-1,3,1,24,3,1
-4,8,5,-1,-3,0,-13,-6,1
8,9,15,-6,-5,-6,-28,1,1
-5,-3,-6,3,-2,-5,-19,-4,1
-11,-3,2,-4,-1,-2,-23,-13,1
8,9,9,3,-3,3,56,-1,1
-4,-16,-8,-43,1,-2,-3,7,1
2,15,-24,57,1,-6,-21,-11,1
-2,-19,-24,-19,-1,-1,-6,28,1
9,22,11,-22,-1,-5,6,28,1
-4,-16,-8,20,1,2,37,-2,1
12,27,10,-38,-1,2,19,-8,1
0,2,23,5,-2,-1,-8,4,1
-5,-27,-32,-17,1,2,1,-2,1
9,5,-18,1,-7,-6,31,4,1
3,36,17,13,9,12,7,7,1
12,11,-18,-9,3,6,-22,-7,1
-3,1,37,5,-6,-3,3,3,1
-6,-18,-29,-12,-2,-5,-7,-4,1
-10,-33,-20,-7,-8,-12,21,-8,1
7,25,5,4,10,15,-22,11,1
-3,-1,5,7,-3,-6,-70,12,1
-5,3,8,14,4,7,35,-14,1
-7,-12,-7,-7,-4,-4,17,2,1
-1,2,7,-17,2,1,0,-18,1
1,-2,12,29,2,4,30,1,1
-4,33,15,0,-6,-8,-21,-3,1
-5,-2,-14,-8,-3,0,-9,3,1
3,58,17,-5,-2,-6,15,4,1
12,23,-7,-12,2,6,2,-5,1
-16,-13,28,12,-2,-3,-12,-2,1
-7,-48,-21,-6,-1,-2,-33,-15,1
2,-12,-26,13,0,-2,16,3,1
-9,-3,11,1,0,-2,0,-4,1
-1,21,37,-17,0,2,-20,18,1
6,-1,25,32,5,3,13,6,1
-16,-46,-29,-30,-9,-6,-20,-10,1
3,-16,-13,-3,-3,-3,-6,8,1
1,-30,-21,5,-6,-3,30,-8,1
3,39,23,-2,1,4,3,-2,1
0,5,1,-5,-3,-6,18,-1,1
-4,21,-8,7,-4,-6,-8,-3,1
1,-4,-7,-4,-1,0,-6,-1,1
-2,8,-7,-2,4,2,7,-9,1
5,-4,21,38,2,0,-1,5,1
5,-11,3,-4,-1,0,8,-16,1
-5,-32,-10,-12,2,-1,-27,-4,1
7,15,25,7,-2,-9,-49,-6,1
1,-23,-52,-26,1,9,26,-23,1
-10,-6,-5,23,5,6,2,1,1
5,13,-7,-4,-2,-5,-19,-7,1
6,30,25,-8,-3,0,31,9,1
-1,7,15,-3,-6,-7,-15,-1,1
-9,4,-25,1,0,-6,-18,-9,1
-1,-21,-8,-3,-3,2,20,3,1
0,-6,-14,2,4,2,5,-1,1
-4,12,38,9,2,1,-6,8,1
4,14,-5,-10,-1,1,-3,-5,1
-7,2,8,17,-5,-6,44,-1,1
-24,-80,-18,7,-7,-5,18,1,1
3,23,2,-14,2,-3,-18,1,1
1,-17,-32,-15,5,7,26,-4,1
-2,51,14,5,-4,-6,-76,42,1
-4,-9,-15,21,-1,1,11,-4,1
-9,-23,25,-4,-3,0,-27,1,1
16,21,29,-12,-1,-5,-5,-11,1
4,-12,-17,-4,2,8,25,-4,1
-1,1,-25,-14,-5,1,22,8,1
-4,4,4,4,-5,-5,-37,0,1
-1,-14,-51,-20,0,1,47,-7,1
7,1,28,8,5,3,8,4,1
5,0,-9,5,0,-1,-14,-4,1
4,-3,16,4,1,3,23,0,1
-5,-12,-14,-7,-6,-5,-6,-13,1
-2,-1,6,1,0,-1,-5,-13,1
-6,-10,-15,-2,2,0,2,1,1
-4,28,1,-4,-5,-4,14,3,1
8,14,5,-1,4,6,15,-1,1
-8,-18,10,37,2,-7,-30,-7,1
-10,14,11,-43,-2,1,-5,4,1
13,19,-1,17,3,3,37,-1,1
-4,21,60,25,-2,-3,-12,13,1
1,-31,-61,-26,4,12,33,-23,1
11,3,-8,-1,2,7,23,45,1
-10,-14,-5,1,-1,-7,-57,-4,1
2,17,2,0,-3,0,15,15,1
-14,-42,17,-6,-1,-2,-10,-1,1
1,20,31,10,-1,-4,-19,-9,1
-3,-41,-68,-7,-4,4,26,-3,1
0,7,3,-13,3,-5,-66,11,1
0,17,-8,-19,-4,-5,-38,2,1
-8,17,29,23,-1,-2,1,-17,1
9,-20,-2,-26,3,7,33,2,1
-9,-21,-7,47,-2,-7,-31,-11,1
13,31,-18,-15,-1,3,29,-3,1
-1,16,1,-31,-5,-8,2,1,1
4,11,30,24,-1,-4,-34,9,1
-7,-29,-44,-11,-3,1,-3,-13,1
5,23,-2,1,5,9,33,7,1
6,3,5,2,-3,-1,-3,2,1
-5,-18,-4,7,-4,-3,16,-1,1
8,16,5,-34,0,3,-3,9,1
4,24,56,33,1,1,21,3,1
2,-1,-25,-7,3,2,20,-16,1
1,-26,-15,-10,-1,2,11,-1,1
-2,27,35,8,-5,-12,-30,1,1
3,17,18,-6,-1,-4,-35,1,1
9,-1,-1,18,0,-1,11,11,1
-5,-29,-21,-25,3,5,-2,3,1
3,2,-5,26,1,6,40,-8,1
10,-6,12,0,0,0,-4,6,1
-1,-35,-49,3,0,0,-27,-5,1
-3,10,-5,7,-1,-1,3,0,1
-6,-23,-5,-31,1,-1,0,-10,1
-12,-15,-19,6,-6,-7,-11,-8,1
5,16,28,-1,1,2,3,-5,1
4,21,14,0,-4,-4,-7,1,1
-3,-10,3,0,2,3,-10,2,1
-8,21,-5,-3,-4,-6,-21,-15,1
-2,-7,-8,1,2,2,57,-2,1
-2,11,20,-2,-4,-8,-7,-4,1
1,4,0,23,0,-2,-26,12,1
9,72,-6,-22,-3,6,68,-4,1
-1,-7,6,1,1,3,-69,-10,1
-1,1,-4,11,0,-3,11,8,1
7,6,22,2,2,2,3,8,1
-4,-22,-39,-7,0,1,5,6,1
-2,13,27,30,1,-1,25,-8,1
-11,-14,-16,-29,-2,0,-12,-17,1
-3,-1,1,-5,0,3,0,9,1
1,-20,20,9,0,2,20,8,1
5,27,22,16,0,-2,-20,12,1
-4,-16,6,-3,2,1,-4,-12,1
-4,-10,-36,15,-8,-5,26,-27,1
-6,-20,21,6,3,0,-11,-20,1
11,38,-16,-14,-4,0,-1,10,1
-5,13,30,10,-2,-3,-4,-2,1
-7,-34,-1,-19,-3,0,-9,6,1
6,-20,-49,1,-1,-2,-3,11,1
-11,-8,16,-10,0,-7,5,3,1
0,24,13,12,4,0,-44,-4,1
1,9,5,-2,-2,1,38,-4,1
-1,-7,9,1,-1,-2,-15,15,1
-5,-28,-14,-13,-1,2,1,2,1
1,1,-15,-14,0,-2,-9,3,1
3,11,18,18,0,-1,9,1,1
-15,-36,4,6,-2,0,10,0,1
1,-37,-40,-38,-4,-1,-1,-12,1
-1,-8,-14,20,1,-4,1,-4,1
-9,-13,19,-13,-1,-1,2,-5,1
1,-19,-13,21,-1,-1,-6,-2,1
3,22,-54,12,-1,-1,-7,-20,1
14,40,9,-1,-1,1,18,4,1
-10,-35,-72,-8,-1,0,-7,-3,1
6,8,9,-10,1,-2,-3,-2,1
-4,-3,27,1,2,-3,4,12,1
0,-4,4,12,1,3,11,-1,1
5,0,11,-2,3,-1,-11,-4,1
8,4,11,-4,1,4,15,27,1
-8,-6,0,-1,-5,-4,-5,0,1
-2,-3,10,-2,-7,-12,-63,1,1
-4,4,11,7,-2,-2,31,3,1
-10,-25,-23,-9,-2,-5,-28,-17,1
-3,-15,7,-2,-3,2,5,-11,1
-2,-1,13,-8,-2,-1,13,12,1
8,2,-20,-2,0,-2,-19,1,1
-12,-7,-11,0,-3,-1,-16,-1,1
7,28,21,-11,1,-1,1,-1,1
-4,36,-34,-19,-6,-2,42,9,1
-13,-69,10,25,-1,-7,-77,-17,1
-1,15,7,-19,-2,0,46,7,1
7,26,25,4,-6,0,-10,9,1
-8,-43,-6,12,7,4,23,-2,1
5,49,15,-6,-1,1,19,1,1
-2,-16,-44,4,-1,0,-8,2,1
-3,-17,11,1,2,0,-13,-2,1
2,-10,6,-15,-4,-2,-1,1,1
1,45,18,-5,-3,-1,6,3,1
-1,-8,7,4,1,-4,-25,-15,1
-5,1,-18,-14,-2,2,30,1,1
2,8,14,13,4,6,24,8,1
-1,-14,-4,-14,3,-1,15,6,1
10,29,16,7,-1,0,28,23,1
1,-13,-7,-2,1,-3,-20,-3,1
-6,3,9,11,0,-2,4,12,1
2,9,21,-10,-2,2,-5,5,1
-3,-38,-53,-11,-3,-2,-6,-10,1
-6,-13,8,18,-4,-2,6,3,1
5,-4,-6,-11,0,1,-2,1,1
4,45,19,-29,-1,-1,-4,3,1
0,1,5,27,2,0,-5,-17,1
-5,-17,-1,6,-1,0,22,-1,1
4,-40,11,-14,-2,0,-35,-15,1
6,25,-5,24,0,1,51,-10,1
-9,7,16,-16,1,-1,-1,13,1
-7,-27,-8,0,0,-3,-3,-6,1
3,-6,-17,-1,2,5,4,2,1
-13,-49,9,2,-3,0,6,0,1
6,8,-15,6,-1,-3,-6,-6,1
1,14,11,-2,0,-2,-3,4,1
-2,0,-14,-15,-2,-2,-3,-3,1
-3,4,13,34,0,-4,-30,-11,1
-2,-15,-6,-31,0,0,2,-3,1
-15,-10,-17,13,-6,-9,-28,-7,1
9,19,17,-31,-6,-3,-2,-17,1
-10,-43,-29,19,0,-1,4,0,1
3,19,35,8,-4,-5,-9,-10,1
-1,2,-13,-3,4,3,8,-1,1
-7,-15,21,22,2,1,-5,-3,1
2,13,-8,-12,0,3,0,11,1
15,21,9,-1,1,5,-3,10,1
-11,-2,6,0,-1,-3,11,3,1
-5,23,21,14,-5,-7,14,2,1
10,1,-46,-6,3,7,13,4,1
-10,0,-6,-52,-2,-7,-41,-13,1
10,-19,12,28,1,5,49,7,1
1,-18,-6,6,-2,-3,-30,4,1
-7,-9,-19,-19,-7,-8,-50,2,1
9,26,-5,7,0,3,15,1,1
3,14,12,-20,0,0,-2,-2,1
0,3,-4,21,0,6,36,-2,1
2,-2,20,-14,0,1,3,-2,1
-13,-28,-59,8,1,-7,-11,-17,1
-3,-14,-5,-15,-1,0,-10,-1,1
-7,7,-18,19,-3,-5,-19,6,1
-3,23,32,-34,2,1,1,13,1
3,-3,17,31,0,3,11,2,1
-4,-30,-11,-10,-4,-3,-7,-18,1
5,-1,-24,-6,4,2,5,12,1
3,11,-8,1,-1,-1,-2,-1,1
-11,-28,-11,2,-4,1,7,2,1
5,25,12,24,3,-2,-21,15,1
-5,-6,-14,-21,-2,0,-1,-19,1
6,-9,22,4,-5,-7,3,52,1
3,29,2,-4,1,2,6,2,1
-1,7,-1,0,2,1,-7,18,1
3,20,12,6,4,1,-28,12,1
-4,-4,-28,4,3,3,34,21,1
-11,-42,-12,-6,-1,3,10,-2,1
3,29,4,-8,-4,-3,1,7,1
10,2,15,13,-4,-5,7,0,1
-1,10,2,8,0,1,3,-23,1
-1,3,30,-11,1,0,-10,7,1
1,-2,4,3,-1,1,-11,-14,1
-6,-16,-13,11,0,-4,-39,0,1
3,36,-5,-25,-4,-2,15,-22,1
4,17,13,6,-5,-8,-46,11,1
-5,18,7,-8,-2,-3,28,1,1
-4,-11,21,3,-1,-1,-4,-11,1
-11,-41,-57,-10,1,-1,-22,-8,1
7,30,59,3,0,-2,9,7,1
9,-6,-16,-9,1,0,-18,2,1
-11,-32,-61,-16,-2,-3,15,-1,1
0,14,18,6,2,3,5,1,1
-14,-3,10,1,-1,-1,-13,-2,1
2,19,38,24,0,4,8,11,1
3,11,-13,-17,-2,2,0,-5,1
-5,-18,2,10,-2,-7,3,4,1
11,20,-10,-8,2,2,19,10,1
-15,-108,-3,13,6,5,24,-11,1
27,40,2,-7,-2,-1,-20,-1,1
-3,-8,3,4,1,2,25,-4,1
5,18,19,1,-1,-1,10,-7,1
-2,23,-13,-11,1,0,-7,-9,1
7,-1,-29,-7,1,3,31,-2,1
-7,-32,13,6,4,0,-36,1,1
-4,-9,44,11,0,1,21,3,1
11,33,-26,-6,-1,0,-12,-4,1
-20,-18,-1,-12,-5,-6,-12,-7,1
4,13,-39,12,-5,-4,-21,-19,1
4,5,-18,1,0,1,5,0,1
-6,1,4,-4,-4,-6,-10,-7,1
-1,22,32,1,3,1,11,4,1
-9,-42,12,4,-2,-1,6,-2,1
2,-20,-8,4,1,4,-4,-11,1
13,9,-14,-14,-4,-2,2,-20,1
-3,-23,7,19,-2,-3,-16,43,1
8,-6,-8,5,2,0,-6,3,1
1,-8,-29,14,-7,-6,5,-18,1
-2,-2,16,9,1,5,25,-1,1
-14,-7,7,-12,-2,-7,-39,-3,1
10,11,45,17,2,3,13,6,1
1,-14,-49,-14,0,3,-6,-2,1
-3,-17,-15,1,-1,-3,-10,6,1
2,15,12,0,5,5,22,-18,1
-5,-5,-42,-8,-5,-4,-10,1,1
-7,-40,18,5,-5,-3,3,-4,1
6,18,-9,-15,1,-1,-2,-11,1
2,-11,8,0,-1,2,28,1,1
8,36,18,-12,-2,0,-5,-2,1
-7,-3,15,2,1,0,-1,2,1
-22,-19,-19,-3,-2,-8,-20,-1,1
-1,4,11,-9,-6,-4,5,-1,1
2,1,-14,2,0,2,7,-1,1
6,25,22,5,0,2,-7,-2,1
2,-19,5,-2,-3,-1,19,0,1
-6,-5,-27,6,0,-2,0,-19,1
-3,-6,8,-3,5,6,2,-7,1
11,43,-43,-29,0,0,23,-1,1
-19,-59,24,-8,-11,-11,-30,-19,1
-8,-14,-38,-5,-1,3,32,-6,1
4,8,8,18,-2,-2,-43,-1,1
2,23,22,-10,0,-2,11,-4,1
7,17,-8,0,3,6,10,16,1
2,-17,6,7,-2,1,-3,12,1
0,11,3,-20,-2,-3,1,1,1
-5,-10,-8,2,-3,-4,-5,3,1
0,24,-6,5,2,0,-11,5,1
2,3,18,2,0,0,-2,-2,1
6,22,8,-5,-2,-1,13,14,1
-2,-25,-18,7,4,2,-4,16,1
3,14,9,-2,0,0,-9,1,1
1,40,-2,2,-5,-5,0,-1,1
-6,-16,12,-5,-2,1,13,-16,1
-11,-26,-38,3,-3,-3,-9,-16,1
-4,-22,-23,-7,-3,-5,-8,5,1
8,2,-2,-43,-1,6,-4,6,1
-18,-24,-16,49,2,1,2,-1,1
-1,-14,-8,-1,-7,-12,-22,0,1
-2,4,24,4,0,2,5,11,1
4,5,3,-8,-3,1,-13,-15,1
7,15,-9,-15,-4,-1,55,24,1
0,-4,7,-7,2,6,-1,-3,1
10,18,-3,3,-2,-3,3,0,1
-1,17,36,19,2,3,5,-4,1
7,-5,-4,-20,-6,-7,7,-13,1
-13,-4,-10,9,2,-2,-10,8,1
3,-20,-20,-15,-4,-8,-62,-81,1
24,-7,17,17,9,13,43,-72,1
7,61,15,-2,0,0,-17,38,1
6,-21,-7,-14,-2,-3,4,44,1
-6,14,-4,-8,0,3,14,-42,1
-1,11,17,44,4,2,1,15,1
2,-18,-27,-41,-1,-4,-52,-41,1
12,11,-14,17,-1,5,23,-14,1
-9,-3,40,-37,-2,-8,-53,28,1
3,65,54,35,-6,-10,8,12,1
-13,13,-77,-19,-2,0,7,21,1
-8,-11,-9,9,3,2,11,0,1
17,9,-51,-8,2,5,42,32,1
-12,-22,-33,-8,3,-2,-15,14,1
-15,-21,127,30,2,-1,2,-16,1
-8,2,43,-16,2,-1,-15,-1,1
-2,0,-96,7,-5,1,13,12,1
6,-19,-24,-10,-2,-3,-8,7,1
8,4,-17,3,1,3,5,-6,1
-8,-16,-31,-5,-2,-1,-2,-24,1
-4,46,85,16,2,-2,-21,17,1
-5,-18,-7,-15,-7,-9,10,7,1
8,-55,-42,-5,2,1,-2,-16,1
12,59,109,-29,-4,-1,2,22,1
0,-29,-1,27,-4,-11,-46,-18,1
-23,6,-14,-9,2,0,-19,67,1
-8,-20,7,-11,-3,-3,-11,-49,1
3,17,1,22,-1,-4,-42,-13,1
-7,5,-6,-10,-2,5,-9,-38,1
1,-16,14,4,-1,-3,2,-21,1
-2,14,1,-22,-4,-5,28,18,1
-19,-27,-15,-8,-3,2,1,-11,1
-5,4,25,28,3,4,23,12,1
-3,-7,-66,-35,-9,-3,3,-20,1
2,4,19,18,-1,-1,-4,12,1
6,3,-53,-2,1,1,5,-30,1
9,15,28,3,6,6,33,18,1
1,1,-40,-14,1,-1,-13,4,1
-8,2,33,6,-1,-1,-8,-5,1
-2,-33,24,25,-2,-3,10,5,1
2,-17,-24,-32,-3,-2,15,6,1
-7,-26,12,16,2,4,7,-6,1
-1,2,-11,-2,-3,-5,-71,-6,1
4,0,26,11,1,2,19,3,1
1,7,-37,-8,1,1,4,-15,1
-15,-22,-12,-15,-5,0,47,37,1
17,57,59,2,3,-1,-58,-3,1
-9,-17,0,16,-2,-7,-30,2,1
1,-23,-6,-3,-1,3,15,26,1
2,5,20,-3,6,5,37,-10,1
-4,-30,-58,-7,-3,0,35,7,1
0,12,11,-23,-2,0,13,1,1
-14,-14,17,24,0,-2,2,-9,1
12,13,6,0,-3,-4,-6,-14,1
-7,20,4,3,-4,0,16,18,1
1,15,-15,10,-1,0,-8,-15,1
13,9,-12,-31,-1,3,19,15,1
3,49,33,13,2,-2,-36,-2,1
-6,-22,9,-2,0,-1,12,14,1
-2,0,-36,-1,-2,-2,-1,6,1
9,37,13,40,-2,-5,-12,11,1
-14,-28,-51,-46,-1,-1,10,-1,1
-15,-67,-37,32,2,-2,-7,-17,1
-2,-41,17,1,2,7,33,-17,1
13,-2,0,-8,-1,-1,17,7,1
1,-13,30,1,-6,-6,-15,-11,1
5,16,-15,-10,1,3,15,-21,1
-19,-67,-53,-1,-2,-2,-17,-7,1
-4,-20,15,1,-4,-3,-7,-8,1
14,44,12,10,-1,2,-7,-40,1
18,62,14,-5,2,3,11,30,1
-2,26,30,5,3,1,-10,16,1
7,23,13,-19,-5,-6,4,-16,1
-10,-34,-33,6,1,0,10,-13,1
1,19,20,2,-1,-4,-50,14,1
-1,4,22,-12,2,1,30,3,1
-10,-39,-100,-2,1,0,-15,32,1
1,-2,78,17,-4,-3,-14,26,1
2,-28,-44,-19,-3,-1,22,-14,1
-11,-6,20,2,-5,-2,5,11,1
5,36,-3,-2,-4,-6,-14,-2,1
2,-29,30,36,1,-3,-25,-3,1
-3,27,8,-27,-4,-2,18,4,1
-8,-12,-3,-19,0,2,0,-12,1
3,25,-6,9,0,1,-4,-16,1
-8,-40,-79,-2,-6,-5,-14,6,1
3,-19,29,2,0,-6,25,-4,1
1,24,-16,0,0,-8,-31,29,1
-9,-6,24,-6,7,10,6,-10,1
1,8,9,-1,3,-1,-13,3,1
-2,-3,-1,10,3,7,29,-5,1
9,28,-10,-13,-4,-7,-9,-6,1
-5,-20,3,-2,-3,-3,-1,3,1
-4,-16,-12,-4,1,1,-3,0,1
-1,-5,-11,8,-1,-1,8,4,1
-2,-13,-3,-1,-3,0,9,-10,1
-7,-16,21,1,-6,-4,-17,12,1
-2,61,-34,-16,-1,0,-2,-2,1
0,10,25,-11,-6,-8,-33,3,1
2,-2,-3,13,2,-5,-28,-3,1
4,34,-38,3,3,2,34,2,1
7,0,54,-27,-2,7,24,6,1
-14,-28,-2,38,10,4,-3,-12,1
10,6,-17,-19,-8,-3,12,-5,1
11,16,22,2,-1,-4,-10,15,1
-8,-11,-33,-13,-5,-5,-20,15,1
9,20,-3,13,2,5,4,-12,1
10,-14,8,18,0,4,2,-11,1
3,-20,10,-5,2,2,4,24,1
4,12,17,7,-2,-7,1,5,1
-4,7,15,-1,-3,-3,-21,-24,1
1,-18,-42,-2,1,0,14,-8,1
5,31,11,-7,-5,-1,7,-7,1
-2,4,10,10,0,-4,-1,-9,1
-1,-21,-11,-1,-2,0,2,4,1
24,54,17,-1,5,6,15,10,1
-15,13,-6,-13,-5,-4,-9,-18,1
0,-33,-44,-1,1,3,1,5,1
-10,-27,16,8,-4,-4,13,9,1
-2,15,3,-15,-3,-4,-8,5,1
-11,-53,-1,22,-1,2,1,3,1
0,52,-2,6,-3,-3,0,2,1
7,0,-80,-19,0,2,-8,5,1
-5,14,79,11,-5,-1,0,-3,1
5,19,2,10,7,0,-8,-10,1
-7,-54,-70,-11,0,0,-3,-10,1
8,35,34,0,-2,-1,17,6,1
5,32,9,29,0,1,-4,-5,1
-6,-81,-62,-25,-2,-2,6,-21,1
-4,-11,1,5,-5,-8,-5,-11,1
-6,-13,3,-11,-1,-4,-9,-10,1
0,11,-2,-3,5,0,13,9,1
-3,16,40,15,1,7,4,-56,1
3,-2,21,-8,2,1,-27,-28,1
-4,-39,-23,4,-2,-1,10,7,1
-16,-17,12,-23,-6,-1,12,-11,1
2,48,29,18,-2,0,-13,-16,1
2,-22,-27,11,0,4,26,8,1
-3,14,-15,1,-5,-10,12,-4,1
2,-19,30,1,5,3,11,0,1
-2,-4,-35,-2,-4,-7,-27,24,1
10,36,48,10,2,2,42,2,1
-4,9,-7,-20,-2,0,-15,27,1
3,13,-14,-9,-2,1,-20,8,1
-9,-23,8,-17,4,2,39,16,1
4,-2,24,4,4,3,-25,16,1
-6,-32,-40,-8,-3,0,6,-13,1
1,11,7,15,1,2,27,14,1
6,-24,-7,-14,5,3,-13,11,1
-7,15,12,5,-7,-12,-18,-12,1
-3,-2,16,-1,1,7,13,-2,1
6,2,-35,-7,-8,-11,-63,34,1
-8,-20,107,0,-1,3,28,18,1
9,0,-103,1,3,6,1,-12,1
-3,26,47,11,-4,-8,-32,-7,1
-8,-14,-22,-2,1,-3,17,6,1
2,2,-34,-11,-2,-1,-9,-21,1
7,35,74,5,2,3,-4,21,1
-3,1,-12,-27,0,0,4,8,1
-9,-27,-40,8,1,4,-1,-16,1
4,11,-22,-13,-6,-6,-16,-3,1
-5,-31,17,6,2,1,19,-7,1
9,17,-4,-4,-5,-3,-4,13,1
-12,-10,8,-6,2,4,20,-27,1
6,7,-6,6,-5,-8,-28,8,1
-6,-4,5,-12,-3,-2,17,4,1
6,6,-2,31,2,0,-53,-1,1
2,12,-20,-6,4,1,-4,-13,1
-4,7,59,5,2,1,-3,12,1
2,5,-10,-2,-4,-2,-9,15,1
-14,-56,-15,0,-6,-7,23,42,1
8,13,74,-19,-2,1,3,-6,1
-13,-2,-71,10,5,2,-11,-20,1
8,30,13,-2,-7,-6,-4,19,1
2,0,12,19,4,3,-7,-10,1
12,40,-27,-21,-5,-6,5,38,1
-3,-15,0,29,2,-1,-30,-12,1
-3,-1,17,-8,0,0,-16,-17,1
1,0,7,9,4,6,28,-12,1
4,9,-25,2,1,1,-8,4,1
-3,-3,-4,-11,-4,-3,10,7,1
-9,-41,-9,7,4,7,10,-10,1
8,25,-2,-12,-5,0,-14,-8,1
2,-7,6,7,0,-6,-1,-7,1
-10,-3,21,1,0,3,24,0,1
1,2,-4,-6,-3,-2,2,-4,1
1,-8,22,-5,2,2,25,-8,1
-4,1,10,5,-3,-1,-1,-10,1
6,1,-14,-6,0,1,2,12,1
-6,59,19,40,0,-2,-47,-10,1
4,8,-33,-33,4,4,15,-42,1
-17,-114,-73,-9,-4,-3,-5,-13,1
13,64,28,11,-4,-4,2,8,1
-3,-17,23,2,6,7,2,10,1
0,14,27,2,-5,-6,-19,13,1
-4,-6,-5,-3,-4,0,-5,4,1
-1,-26,-10,-37,-5,-3,18,11,1
4,-10,-21,-7,0,0,-10,12,1
2,4,-5,20,5,4,16,15,1
-18,-5,66,-3,2,1,8,18,1
-14,-23,2,11,-3,-3,-19,-14,1
-11,-55,13,-13,-3,-1,12,-9,1
3,-7,-47,-1,-5,-4,-45,-9,1
-2,11,-17,-3,0,0,3,-17,1
-4,-7,-46,-5,-2,-2,7,-14,1
4,11,20,4,7,3,17,11,1
-6,-21,0,-1,-3,-1,4,-8,1
5,10,-1,3,-5,-4,6,-4,1
2,-18,-5,3,0,0,0,-10,1
-12,-19,20,-29,-9,-7,0,-14,1
0,-32,-1,-7,4,4,11,7,1
15,63,11,21,-1,1,-3,10,1
12,24,-10,10,4,-4,-3,-2,1
-1,-28,-29,-31,-1,0,1,-2,1
-6,9,3,-18,-8,-6,0,-5,1
-8,-12,-12,18,7,6,-3,14,1
11,62,59,-7,-2,1,-4,7,1
-3,15,-27,17,4,5,-10,-29,1
-9,-25,-75,-7,0,2,23,-27,1
7,10,21,-5,5,1,9,-5,1
3,-13,-36,2,-2,1,32,29,1
-5,-10,1,-6,-9,-4,10,12,1
2,12,41,15,6,8,9,10,1
3,0,-20,0,-3,-4,-9,3,1
-1,-4,24,5,1,5,17,5,1
1,-22,-41,-2,1,-3,-10,8,1
0,0,4,11,-4,-3,-4,12,1
-12,-10,-6,-8,-3,-4,-14,0,1
19,22,16,-5,-5,-4,-7,9,1
-10,-11,-17,-11,-1,0,33,-1,1
4,5,-12,-1,6,1,-38,1,1
-24,-85,27,-2,-7,-8,23,3,1
-13,-33,-26,8,-2,2,6,-24,1
9,18,84,20,-1,-1,1,-16,1
0,-25,39,-27,4,2,9,29,1
5,13,-35,8,-4,-3,6,0,1
-5,-10,-10,-6,1,0,-9,4,1
7,30,-6,-8,-2,-3,-3,-5,1
-5,-2,13,11,-1,-8,-12,4,1
14,26,-27,3,7,7,-17,-14,1
-16,-38,52,1,0,1,-1,13,1
9,21,-3,12,0,-1,-6,0,1
9,57,29,8,-3,-5,3,18,1
4,57,-28,-7,3,-2,-1,3,1
-3,-15,-23,-21,-3,-1,0,3,1
6,15,4,-3,-3,-2,8,9,1
-1,-7,-8,7,-4,-3,-3,-2,1
2,-1,4,-3,0,0,-9,3,1
9,46,8,-2,-1,1,-5,-1,1
2,5,1,10,4,3,7,0,1
2,17,-13,-22,2,1,5,3,1
-13,-53,-6,21,-1,0,-11,-17,1
-9,28,41,-13,-1,-1,-14,-43,1
-11,-48,-21,8,4,3,1,-3,1
1,23,26,2,-7,-1,28,4,1
-51,-95,9,-15,-5,-5,-17,22,1
11,20,-69,11,-1,-5,-12,0,1
5,-22,-7,-2,-3,-3,-5,-1,1
6,2,31,6,4,4,7,-13,1
22,58,-47,-14,-4,-1,2,-12,1
-10,-66,1,-2,-6,-6,9,8,1
-6,26,-24,-17,3,1,3,4,1
-9,-35,3,9,-4,-3,-3,-1,1
16,20,0,6,4,5,5,5,1
4,2,28,3,7,3,-4,8,1
3,15,-11,-9,-8,-6,3,-11,1
-14,7,-14,-28,-3,-3,-18,4,1
13,22,45,51,-1,0,28,-21,1
-6,2,-36,2,0,-2,14,-1,1
4,46,16,22,-1,-2,-34,12,1
-1,28,-16,-46,-7,-9,-15,-7,1
10,23,12,-28,-6,-3,32,9,1
-7,-46,-7,1,-4,-4,6,1,1
11,30,5,-10,-2,-2,-4,0,1
1,17,6,25,5,3,7,-1,1
4,-13,-31,-8,-3,0,-9,-3,1
1,9,8,-3,1,5,26,-22,1
-3,10,-10,-7,3,-2,-8,19,1
8,-9,-3,15,2,0,1,22,1
-4,3,16,-2,-1,-3,-29,-2,1
6,9,9,8,-1,0,18,22,1
-14,-22,-4,-10,-1,-1,-12,-5,1
8,6,-6,13,3,3,36,-10,1
6,26,21,-3,-2,-6,-49,-3,1
-10,-11,35,-4,0,-1,-21,0,1
14,-1,-9,6,5,5,12,-5,1
-15,-60,-30,6,-6,-5,14,-1,1
-2,-14,13,19,1,-5,-9,8,1
-5,-10,12,-29,-4,1,1,0,1
-6,-26,11,-1,1,-4,-10,-6,1
1,6,-4,6,2,3,-14,-7,1
2,14,-8,-12,-4,-3,18,-4,1
-4,-14,-7,10,1,-2,-15,10,1
-13,-57,-99,-8,-4,4,6,2,1
-4,55,13,-14,-4,-6,-29,-1,1
0,26,10,9,-1,-2,19,-9,1
2,26,43,4,-2,-8,-48,9,1
7,2,-12,-2,-1,-1,5,41,1
0,-29,-17,-7,-7,-10,-17,68,1
-5,-17,-20,-12,-2,0,-5,-16,1
7,36,-10,8,3,3,16,-15,1
0,-14,27,6,0,1,6,-6,1
2,-7,10,-16,-3,-2,-64,-8,1
-7,-26,24,-18,-3,-1,21,6,1
3,-14,16,22,1,1,-2,18,1
1,24,-39,-17,1,1,0,-23,1
-22,-64,-36,2,0,4,28,-20,1
4,-10,-6,3,1,1,1,7,1
2,14,1,-16,-2,0,9,-12,1
2,-2,5,-7,-2,-4,-4,9,1
2,-27,79,31,1,3,11,-30,1
5,-4,-6,-2,-1,-2,29,5,1
-9,-4,-38,-1,-4,-8,-67,4,1
-4,-13,84,7,0,3,11,22,1
-4,-16,-38,-7,-3,-3,-7,2,1
-6,3,11,-4,2,4,10,5,1
4,0,-23,-1,4,6,12,-4,1
0,8,26,-7,-6,-4,-6,-3,1
10,25,-16,1,3,1,-1,-1,1
-2,17,20,4,0,-3,-18,2,1
-1,8,-6,4,-2,1,10,-2,1
1,29,25,6,-2,-3,-19,-5,1
-5,-12,-29,14,2,5,32,-8,1
7,44,-29,3,-2,0,-7,-4,1
-8,-35,-3,-19,-3,-6,-15,-15,1
-1,-14,11,11,0,-1,18,-20,1
10,64,40,-3,0,1,24,-34,1
0,-14,-4,-6,-3,0,-11,-10,1
0,1,11,10,2,4,20,5,1
0,-42,-31,1,0,-3,-11,-16,1
-5,1,-10,-20,-2,-1,5,-1,1
-4,-21,-14,6,3,4,-2,-5,1
6,7,6,12,-1,-3,31,6,1
-16,-58,-33,-13,0,1,-2,-4,1
10,-6,-6,4,-1,-6,-64,-28,1
-8,-16,18,-4,-8,-9,-5,4,1
0,6,-7,4,-1,2,-6,7,1
10,37,-36,-25,3,2,16,-2,1
13,46,26,34,7,7,9,-4,1
-12,-43,-19,-15,2,2,-8,-1,1
0,8,-3,-14,-6,-7,-28,-19,1
5,26,-17,3,-1,-1,17,3,1
-3,-1,19,-7,-5,-4,5,10,1
7,9,-5,2,1,2,4,7,1
-11,-2,-3,2,-3,-8,-32,1,1
6,50,43,1,-2,1,11,5,1
-3,-15,-27,-3,-5,-2,10,9,1
15,17,3,5,3,3,-2,5,1
0,-8,-14,0,4,6,24,-20,1
2,5,13,10,-3,-6,-80,-10,1
-20,-24,-4,-4,-2,-2,-2,3,1
10,21,7,-2,2,4,26,5,1
7,47,-6,-4,0,-6,-57,3,1
5,38,49,37,0,1,15,0,1
6,-17,-69,-20,-4,-4,25,5,1
-3,1,-10,-5,-3,-2,-10,4,1
-7,-34,-26,-1,-1,3,18,-5,1
-11,-18,17,-7,1,3,8,6,1
0,-5,55,11,-2,-4,-28,0,1
-6,-1,-47,-13,0,-2,7,-17,1
2,-2,6,34,2,0,21,10,1
-3,-29,-9,-38,-4,3,14,15,1
-2,9,23,-8,6,3,18,6,1
2,-13,12,6,-1,-3,2,-11,1
0,-2,8,-1,-6,-4,-13,6,1
5,2,-20,27,0,0,39,-12,1
-7,-19,-5,-19,-6,-5,10,-8,1
0,59,16,18,-1,-1,-15,3,1
1,1,-8,-11,2,1,12,1,1
-10,-19,-15,-5,0,2,16,12,1
-3,-7,-8,-8,-6,-3,-10,-11,1
2,-4,14,-4,-1,-3,-4,4,1
4,-10,-10,0,-3,-1,13,2,1
-6,-18,0,-4,0,-2,-12,-6,1
4,42,-1,12,5,2,3,10,1
-4,-9,22,-8,-5,-4,-19,7,1
6,-3,-8,-7,1,5,20,6,1
-16,0,1,-3,0,-4,-18,-3,1
20,29,11,11,5,4,-3,9,1
-2,2,1,11,3,2,7,6,1
-2,-10,-8,-23,3,3,-21,-2,1
-3,10,1,-1,-1,-3,24,-1,1
0,-13,1,-1,-2,-1,12,9,1
3,6,7,-2,1,0,1,2,1
-3,-2,-1,1,1,-1,-2,0,1
13,5,28,4,1,1,-3,-2,1
-12,-43,-65,-7,-4,-3,-8,-8,1
-1,-10,0,3,1,0,5,-6,1
1,33,20,0,-1,0,1,-3,1
2,-25,-27,2,-5,-5,22,13,1
10,68,22,4,3,1,-12,15,1
2,31,-9,7,-3,-3,5,0,1
-3,-24,-1,-2,2,3,15,2,1
3,17,20,-5,-1,0,-17,2,1
4,4,-2,6,-2,0,2,-6,1
-6,-41,-21,-22,-4,-5,-41,-2,1
-7,8,30,22,-1,-3,5,3,1
-11,-11,1,23,-2,0,-37,-14,1
-2,-34,-8,-2,0,2,29,8,1
1,-7,-8,2,-1,-1,5,-6,1
-7,9,-26,-17,-10,-10,-3,-67,1
6,-33,-22,14,-2,-3,23,-9,1
6,16,29,9,7,3,-39,-29,1
6,14,50,-4,4,3,15,1,1
-11,-13,-58,2,3,1,6,2,1
3,25,-25,-13,-4,-2,1,12,1
-4,-21,8,-9,-8,-8,2,-5,1
-15,-8,-17,0,-2,0,0,-23,1
6,-1,17,-9,-3,-3,-15,-8,1
9,27,7,-5,4,1,-29,4,1
-7,-12,-5,-8,0,3,12,13,1
7,29,22,13,3,3,12,9,1
-5,-34,-2,4,-9,-7,-16,2,1
-5,-13,-10,-13,1,0,0,-15,1
-3,10,15,29,-1,-1,-17,-8,1
-3,2,-8,-14,0,0,-29,-3,1
0,19,3,-26,1,-1,12,8,1
5,-11,-44,10,-2,-1,1,0,1
5,5,8,-12,-5,-4,1,15,1
-8,-36,-16,1,-2,0,8,6,1
-9,-50,-22,5,7,3,14,11,1
-8,-12,37,-11,-4,-6,-25,-12,1
-5,8,11,0,1,1,17,0,1
-6,-13,-30,-9,-9,-9,-11,-11,1
12,22,26,8,7,10,-5,14,1
1,26,10,4,-1,-4,33,0,1
-5,-31,-17,-5,0,2,-1,8,1
-9,-16,8,1,1,1,6,10,1
2,1,-2,-2,-6,-2,2,13,1
-2,5,-2,-3,-2,-1,-12,3,1
5,13,-8,0,-1,-2,2,26,1
-5,-7,-10,-3,-4,-3,-5,4,1
-13,-36,-13,-1,-3,-3,-4,-1,1
7,-4,2,4,7,5,32,-6,1
-8,-7,-5,-8,-4,-2,7,-18,1
3,0,5,2,1,-2,-4,11,1
7,32,-28,0,-1,0,15,7,1
-19,-34,-22,-7,-4,-2,13,6,1
-6,-36,37,-2,2,-1,-42,-7,1
25,31,-56,0,2,3,32,-15,1
6,10,11,-21,-6,-6,12,8,1
-18,-39,4,5,6,4,-10,2,1
20,11,15,57,-1,0,5,-1,1
-6,-15,22,-24,-4,-1,2,-2,1
1,11,0,4,0,0,-13,0,1
8,9,4,-21,-3,-1,-20,10,1
-7,14,6,-5,3,4,42,-17,1
-8,-6,18,7,0,-1,-43,-34,1
16,10,7,-1,-2,-3,-34,-20,1
-2,32,-12,0,-3,1,11,-10,1
-8,-10,-16,-10,3,1,6,-7,1
-3,-2,-30,0,-7,-8,-17,11,1
3,-2,7,1,0,3,15,5,1
2,25,37,4,-2,-6,-37,-1,1
0,-22,-64,-8,-2,-1,17,0,1
-8,-26,4,-7,4,4,9,15,1
-10,14,22,25,1,2,7,1,1
12,38,-1,-9,-8,-10,-38,-2,1
-8,-30,14,-4,-7,-5,5,4,1
19,46,-20,-6,2,4,18,9,1
-8,-41,3,-2,5,3,-3,8,1
7,19,1,8,1,0,2,5,1
-7,5,7,4,0,-4,-6,0,1
6,10,7,-2,-2,-5,-13,12,1
-11,-4,-7,-17,-1,2,6,-15,1
1,-13,-21,-8,4,4,21,-12,1
-2,22,15,-9,4,3,-14,27,1
-4,-34,-28,16,-1,0,43,-10,1
3,10,18,-3,-3,-3,-1,5,1
-5,-20,-26,3,-1,1,-2,2,1
0,14,-3,-7,-6,-3,-10,-24,1
-7,-38,7,3,2,0,-21,-5,1
-8,10,10,4,3,1,-5,12,1
4,4,10,0,-3,0,5,4,1
0,7,-3,-2,-1,-1,30,-8,1
2,14,16,0,-2,-1,-20,9,1
-4,0,-7,-9,-2,-4,5,3,1
-17,-31,4,10,1,0,-3,0,1
7,13,-15,-5,6,2,10,-7,1
-8,-31,-7,-11,-5,-4,-2,7,1
5,22,26,-1,-1,-1,-7,7,1
-2,-1,-27,-17,-4,-1,8,-13,1
-8,2,-8,6,-6,-5,-20,5,1
14,43,45,11,1,4,6,-5,1
-2,-32,-15,3,3,0,-12,-2,1
-1,5,-43,-4,-5,-5,9,-3,1
8,-7,-5,-16,-9,-7,-6,17,1
-5,-3,19,11,3,3,0,2,1
-18,-17,18,4,-1,0,6,-2,1
7,52,19,14,2,0,21,1,1
2,-30,-15,-15,0,1,-12,1,1
-9,6,-13,-9,-8,-9,-25,1,1
7,18,1,3,2,4,2,-3,1
3,-4,8,1,2,1,54,-2,1
-9,-11,0,3,1,-1,-40,-4,1
7,27,31,1,5,6,-15,9,1
19,16,-18,-23,-1,4,21,12,1
1,-25,11,32,0,-1,-1,5,1
-4,0,15,-7,-1,-1,30,-2,1
20,25,19,1,2,3,9,1,1
0,3,-17,15,0,-3,-6,0,1
1,-8,15,-7,0,2,-26,1,1
7,57,26,-2,3,2,1,2,1
-6,-10,0,-2,-2,-3,-1,-6,1
15,18,-19,4,-4,-8,-6,29,1
-19,-67,-6,-15,-2,-4,-17,-17,1
-4,7,-8,7,2,1,-23,-10,1
-5,-15,5,-13,3,-2,22,-4,1
-16,-8,-23,-3,-11,-8,-2,-12,1
15,56,11,8,-2,0,12,6,1
-11,-16,-2,1,-1,-5,-43,5,1
-8,-26,-28,-2,-3,0,19,-9,1
-4,-20,13,-10,-1,-1,3,-10,1
0,8,1,-5,-2,-2,22,1,1
5,15,2,1,-1,2,-16,-12,1
7,9,-5,-8,-5,-8,-9,6,1
-3,11,-2,15,-3,-3,1,-4,1
6,45,53,-6,0,-1,-12,2,1
8,32,2,-5,1,2,43,-2,1
-9,-10,-46,-1,-1,-1,-53,3,1
-2,-14,10,6,3,-4,-9,10,1
6,-33,-12,1,5,5,-6,3,1
-1,-19,23,-8,-4,1,10,7,1
-4,2,-4,24,3,2,19,6,1
5,-4,-6,0,3,7,10,-5,1
-7,-13,-2,-2,3,-1,-32,5,1
-1,2,-12,5,1,0,4,10,1
-7,-30,8,-3,-3,-2,-2,-25,1
2,-2,-1,-2,-2,0,-3,-4,1
-6,-7,3,1,2,4,1,3,1
2,11,-29,4,-5,-5,19,-19,1
-9,6,9,-16,0,0,33,0,1
6,7,9,12,2,-1,-19,-4,1
1,20,2,-6,-7,-6,-9,-1,1
2,-21,-3,-3,7,5,8,-8,1
11,16,-41,-4,1,5,6,16,1
-13,-6,19,11,-10,-8,-7,-11,1
7,5,0,6,-3,2,15,21,1
2,-6,-7,-11,-3,-2,-2,10,1
5,13,11,14,1,2,4,-1,1
-11,10,-9,-11,-2,1,-5,1,1
-2,26,6,-22,-10,-8,-15,-13,1
0,6,-17,13,12,5,7,-18,1
-3,-23,2,-15,-4,-2,17,3,1
-5,-13,-5,22,6,8,17,3,1
-9,-23,-4,5,-4,-4,-43,-2,1
8,21,-7,-8,-4,-2,4,21,1
-12,-31,11,22,-1,0,42,-7,1
8,30,-6,-30,-1,-6,-20,-1,1
-9,-34,7,-5,5,5,23,-5,1
-1,-20,-27,6,-1,0,-4,9,1
10,16,-4,-5,3,2,-12,16,1
-13,-46,19,28,-4,-3,18,16,1
10,-13,-44,-37,6,7,32,6,1
-8,-1,28,0,-4,-3,-12,6,1
-8,-4,-16,6,-3,-4,-14,3,1
-4,-9,2,-12,-2,-3,-1,2,1
-3,-12,7,5,4,1,-21,-5,1
7,24,-18,7,-7,-5,11,-11,1
10,45,21,-6,-4,-5,-8,11,1
0,-21,-49,-4,7,3,-18,-11,1
-1,-13,5,-3,-4,-5,4,9,1
-6,38,19,18,-5,-4,-3,-4,1
