-1,5,4,-2,-1,0,-2,3,2
0,-10,-7,1,-2,0,-1,-2,2
-1,2,-1,0,-1,1,1,0,2
1,-2,-3,-1,-2,-2,0,1,2
1,-1,1,-1,-1,0,0,-1,2
0,3,2,-1,1,0,0,-2,2
1,1,-1,0,-4,-3,0,-4,2
2,3,3,0,1,1,0,-2,2
-4,8,-2,-3,-2,1,0,-6,2
-2,3,2,-3,-2,0,1,-6,2
0,-2,-10,-11,-4,-1,-1,-3,2
0,-2,-1,2,-1,-2,-1,3,2
0,3,1,0,-2,-2,0,-1,2
2,3,0,1,-1,0,-2,2,2
0,-2,3,3,-2,-1,-3,-4,2
-1,4,-2,-1,-1,-1,0,-3,2
-1,-5,-4,0,1,-1,-1,0,2
-2,-4,-2,-2,-1,-2,-1,-2,2
-1,-1,2,3,2,1,1,-5,2
-1,-3,-2,0,-3,-2,-3,0,2
1,-7,-1,-1,0,-1,0,-3,2
1,-2,-2,0,-1,0,0,2,2
-1,4,1,2,-1,-1,0,-1,2
-1,5,5,-3,-2,0,2,2,2
-4,-17,-14,-3,-1,-1,-2,-1,2
0,-1,1,-1,-2,-2,0,-1,2
1,1,1,0,0,1,1,-2,2
-2,0,1,0,0,-2,1,-2,2
0,-4,-3,-3,-2,-3,0,2,2
-1,-11,-2,0,0,-1,1,3,2
2,-2,-2,-1,-1,1,1,9,2
1,0,-1,0,-1,0,0,1,2
0,4,2,-1,-1,-1,-2,-2,2
-7,4,1,0,1,0,1,12,2
10,3,5,4,5,5,30,14,2
-23,-12,-9,-7,-7,-15,-72,-51,2
-1,-1,-2,-2,-3,3,13,-8,2
3,-1,-2,-1,-3,-4,-9,4,2
-6,-4,-2,1,1,1,-4,0,2
4,-1,1,3,5,7,18,4,2
-2,-4,0,-2,-2,-3,-4,-2,2
-4,1,0,-1,-1,-2,-6,-15,2
0,2,-1,-1,-1,-3,35,-3,2
4,-1,-1,1,3,3,19,5,2
2,1,0,-2,-1,-1,-11,2,2
7,1,0,-2,0,3,7,4,2
-6,-2,-2,-1,-1,-3,-26,-1,2
2,-1,-1,0,-3,-2,3,20,2
0,1,1,5,2,1,6,-7,2
0,1,3,4,0,0,-11,-10,2
-2,-5,-9,-16,-5,-3,-9,-10,2
2,0,-2,-3,-1,0,9,-1,2
4,0,1,-3,0,-2,-5,4,2
0,-1,-1,1,-2,-4,-1,-10,2
-4,-2,2,3,-4,-3,5,-5,2
1,-1,-3,-1,-1,1,8,11,2
-1,-2,2,2,1,-1,-2,6,2
-1,0,-3,-3,0,0,-6,2,2
-3,0,2,3,2,-1,-28,-4,2
-2,-2,1,-1,0,1,39,3,2
1,-2,0,1,-1,-2,-21,-9,2
-1,-1,-3,-5,-3,-1,-4,-4,2
-2,-4,-2,-2,-2,-1,-4,-3,2
2,-1,2,1,2,4,-3,3,2
8,11,7,2,5,10,6,1,2
-8,-8,-4,-3,-2,-9,11,-9,2
-14,-19,-15,-4,-5,-3,-1,-19,2
-4,-3,-1,-3,-3,-4,14,-22,2
-2,-3,-1,-1,-1,-1,-4,24,2
6,3,0,0,2,9,2,4,2
8,8,7,6,6,6,14,-7,2
-3,-4,-1,-4,-2,-4,2,-8,2
-4,-1,-1,-1,-1,2,11,-14,2
2,3,2,0,2,4,-9,3,2
4,0,3,1,1,-6,2,-5,2
13,12,3,6,9,23,15,2,2
-6,-4,-3,-7,-10,-35,-80,6,2
-4,-7,-7,-4,-7,9,78,7,2
-5,-3,-1,-3,-8,-5,54,13,2
-6,-4,-9,-5,-9,-18,-84,-9,2
-7,-4,-3,-3,0,2,-24,-13,2
9,1,-2,-7,-6,-3,-15,8,2
5,6,5,4,9,1,-58,-1,2
7,6,8,5,10,10,124,7,2
0,0,-2,-6,-9,11,-56,0,2
3,-2,-5,-3,-3,-28,-87,9,2
14,14,10,11,11,13,-48,-8,2
-16,-11,-7,-4,-12,-12,15,23,2
-4,-11,-2,0,0,2,109,1,2
-2,5,0,12,1,5,-61,-9,2
5,-1,-2,-19,-4,-2,22,30,2
5,6,5,5,5,3,54,19,2
-1,-10,0,2,6,-13,-29,-6,2
-1,14,11,24,6,18,120,9,2
3,-1,-2,-10,-3,-23,-114,-3,2
-11,-6,-9,-12,-17,25,64,-16,2
0,-4,-6,-8,-13,-11,-82,13,2
19,7,8,12,24,4,31,-12,2
-8,5,8,13,11,-27,14,-33,2
-13,-13,-11,-15,-22,24,71,13,2
-16,-3,-6,-2,-12,-65,-87,-52,2
-12,-2,-3,-9,-9,14,97,14,2
10,28,15,10,10,16,106,10,2
-10,-39,-13,3,11,-26,-7,-37,2
-9,-24,-13,-1,2,41,74,-26,2
12,12,7,0,5,-36,-116,8,2
-27,-39,-21,-23,-37,22,57,-5,2
37,34,23,22,26,-7,-14,9,2
-20,11,-1,-3,-22,-23,90,-18,2
-18,-14,-1,-22,-10,11,-5,26,2
20,7,2,19,27,33,83,-12,2
-11,3,3,-9,-13,-20,-128,-36,2
1,12,-7,17,6,-24,-61,24,2
-14,-45,-18,-16,-23,1,-36,14,2
-2,12,7,11,7,4,-42,13,2
18,14,-8,-29,4,-4,-30,26,2
28,22,25,11,26,53,94,42,2
2,22,-4,8,14,5,-9,-47,2
4,-14,-4,1,-20,15,-91,17,2
-20,-25,-8,6,0,11,-28,-32,2
40,29,20,18,36,27,127,-10,2
57,14,17,19,37,61,119,-6,2
-37,-22,-24,-32,-47,-32,85,-34,2
-21,-3,-2,3,6,38,63,37,2
7,-12,-9,-10,-10,15,60,-4,2
-2,11,12,16,17,-2,-50,21,2
66,39,31,28,49,13,86,22,2
-62,-42,-33,-43,-62,-40,-54,6,2
-5,2,3,3,2,1,-83,20,2
2,-20,-18,-10,-14,-22,19,-20,2
2,-11,11,19,33,8,-14,21,2
-14,0,-6,-5,-12,9,90,-5,2
-18,-31,-9,-11,-21,-21,-111,6,2
6,56,10,2,8,30,102,-5,2
-3,-34,-5,-15,-11,-60,-101,-8,2
43,18,9,20,28,39,-31,15,2
-6,-22,-1,-2,-6,-11,24,5,2
-39,-7,-15,-24,-37,-47,-47,-7,2
-9,7,-1,0,-3,17,77,0,2
18,17,4,11,7,-7,5,-12,2
25,31,11,26,30,9,-20,7,2
-16,-12,-7,-14,-36,-77,-88,4,2
-32,-15,-20,-25,-26,-12,-77,-4,2
44,30,22,17,20,33,4,13,2
-54,-49,-38,-29,-32,-11,-35,5,2
-14,-28,4,3,16,-5,-12,1,2
-15,26,-10,-18,-22,-40,-102,-13,2
-21,-56,-9,3,-5,-34,-101,-16,2
-5,28,0,-17,-18,-17,5,8,2
-11,-43,-16,-7,-1,4,-4,6,2
12,5,0,0,9,34,-15,15,2
17,17,18,19,23,-5,-12,-3,2
-6,32,17,3,3,61,127,-5,2
9,13,-9,2,-14,-21,20,-24,2
-5,-16,-9,5,-14,16,1,-2,2
21,56,9,12,11,-7,30,-11,2
-3,-47,3,-9,6,-26,-42,-7,2
0,-20,0,-13,-3,17,7,-11,2
-2,57,14,-13,-1,-28,51,-5,2
-17,-38,-25,-33,0,3,-30,20,2
22,3,0,-11,3,21,102,-29,2
-12,-8,-3,-34,-5,7,55,16,2
3,26,3,1,4,0,-37,18,2
12,-12,11,73,-2,-23,24,6,2
38,18,13,67,37,55,127,14,2
-19,24,7,36,-5,-39,-10,-26,2
-12,-21,-15,-14,-23,-8,50,6,2
-36,-29,-18,-2,-15,3,127,-4,2
2,-14,-13,50,1,-70,-119,9,2
22,8,15,-2,14,42,11,-14,2
-8,5,-7,-31,-15,-29,-49,12,2
24,72,22,-7,8,8,26,-15,2
10,-11,14,22,23,-27,-111,4,2
-9,-17,-21,89,-21,38,94,-1,2
11,0,7,37,11,15,-24,-7,2
24,17,5,9,4,36,99,-1,2
-28,10,-9,-53,-37,-30,-23,18,2
19,-7,-3,-44,-1,1,-111,-2,2
16,-8,6,63,-10,45,127,10,2
39,34,36,70,80,19,33,-18,2
-84,-51,-55,-15,-69,-58,-57,-28,2
6,-21,-6,86,11,11,20,19,2
37,-6,18,104,45,14,5,-33,2
-15,-4,-6,52,-42,-20,-58,-6,2
36,51,32,108,38,38,119,-2,2
-22,-2,-7,41,-9,31,49,-17,2
19,11,8,93,24,20,28,-1,2
17,-2,4,22,5,-18,-116,18,2
23,-9,0,-68,4,76,93,23,2
-18,5,-2,-62,-10,-72,-66,9,2
-30,-52,-10,-128,-16,16,78,-6,2
1,-4,-12,-121,-21,-5,-64,-15,2
30,-39,13,-51,25,-4,-81,-14,2
6,91,13,-86,2,-15,-119,8,2
-38,-82,-33,-128,-27,-6,-28,0,2
-40,-60,-11,-128,6,18,75,10,2
-9,94,9,-41,-12,-26,-128,-35,2
-8,-25,-12,20,-15,24,110,14,2
15,51,9,54,5,-21,-79,2,2
3,12,5,89,-2,10,42,6,2
-7,-14,4,40,11,-26,-10,7,2
-8,-8,5,72,6,51,120,-5,2
-43,-11,-20,26,-25,-69,-72,-4,2
54,-9,4,33,6,8,-86,2,2
-3,17,-3,37,-11,35,103,1,2
3,-35,-17,-12,-10,-17,-53,-4,2
-11,-44,-4,40,16,24,-98,-2,2
-14,-18,-12,13,-12,-22,-72,-2,2
-4,-1,5,10,0,-10,24,-13,2
40,29,22,-6,29,14,-2,11,2
17,26,12,-13,12,20,28,-15,2
-35,-9,-18,18,-25,-14,23,1,2
2,-13,-7,1,-12,-3,-29,13,2
-1,-2,7,3,0,-24,-20,3,2
54,49,28,6,50,16,83,15,2
-24,9,-3,-15,-25,-39,-57,-36,2
-14,-68,-16,16,16,47,39,1,2
40,75,4,-5,20,-14,-81,-3,2
15,83,16,23,-26,-40,18,0,2
-28,-60,-36,-12,-17,25,71,21,2
22,-8,23,33,42,5,54,23,2
-24,18,-22,-3,-37,22,-22,-6,2
-29,-70,-40,9,-37,-52,-60,26,2
33,64,21,-5,7,0,-114,2,2
11,21,12,-17,15,7,-53,11,2
-17,-32,8,-1,6,-2,-42,3,2
2,24,9,-3,-3,-10,63,-6,2
-5,-13,-7,15,-7,-29,-24,9,2
-9,-4,-15,-5,-26,-2,-47,6,2
7,3,10,-2,7,-18,-51,-4,2
3,17,4,-17,14,30,62,4,2
7,-12,15,11,33,-2,-5,1,2
-1,-10,-13,-16,-24,21,68,-12,2
-30,-25,-20,3,-26,-26,-3,-5,2
-9,-3,-1,-3,1,23,69,5,2
21,25,16,13,19,2,75,2,2
-35,-2,-15,-15,-38,-56,-70,-1,2
-22,-31,-17,-9,-29,-65,-68,18,2
1,-18,-5,4,2,21,70,-4,2
29,31,17,31,19,15,61,14,2
-16,13,-9,-18,-21,-34,-75,-6,2
-18,-26,5,8,17,29,127,-24,2
-28,-31,-30,27,-33,-12,0,26,2
-4,-2,-11,-9,-5,30,102,7,2
8,58,19,7,14,-10,-52,5,2
54,-44,23,12,56,30,1,14,2
-13,67,1,2,-13,12,-18,-9,2
-28,-8,-12,-15,-15,-45,-56,-13,2
7,3,7,15,11,18,6,15,2
35,58,28,-16,9,19,55,9,2
-11,-61,-16,3,11,-26,-27,-42,2
-51,-36,-33,10,-69,-47,-2,15,2
-26,-24,-10,5,12,-6,-51,-3,2
24,13,16,7,23,7,98,10,2
20,3,9,15,7,59,48,21,2
20,37,18,-17,20,5,42,-4,2
24,-4,-2,-6,8,1,-57,-25,2
-24,-12,-19,2,-18,43,-45,6,2
5,12,4,-14,3,-16,-105,2,2
1,-4,2,3,4,5,-31,-8,2
34,17,16,-14,19,39,50,-19,2
-9,-7,-12,5,-13,-15,44,7,2
5,10,15,3,23,-8,-90,7,2
-2,-11,-5,-25,-9,18,-113,-4,2
23,38,15,11,5,25,127,1,2
-27,-62,-31,-7,-10,-23,-128,-10,2
4,-16,1,-11,-7,5,73,-20,2
23,68,16,21,23,8,64,-9,2
-8,-13,-12,10,-11,-31,2,2,2
-6,53,12,0,-30,-34,30,2,2
10,-28,-1,-11,18,-2,-92,21,2
-42,-37,-22,-13,-35,-22,-4,-9,2
-21,-26,-15,-25,-25,-27,-8,-12,2
5,8,8,-3,14,14,-85,-14,2
-12,-3,2,-12,3,-21,-99,6,2
4,-3,-1,-11,-1,11,-117,-3,2
-8,19,0,3,-8,6,-19,-10,2
7,-54,1,13,17,-34,12,-2,2
-13,27,-9,3,-34,25,73,5,2
1,-59,-2,0,13,-8,-87,-3,2
20,8,-1,-22,7,-2,-9,-13,2
-10,5,-12,-10,-19,11,-14,17,2
9,4,7,-5,8,-16,34,-23,2
-18,-12,-8,-13,-27,-44,-68,-7,2
-12,-11,-5,10,0,55,82,20,2
1,6,3,-11,4,-49,-44,-5,2
-5,4,-3,-38,-9,-18,-62,-17,2
19,7,26,9,21,23,127,13,2
-3,-27,-20,0,0,-23,-22,-10,2
-18,-15,-14,8,-19,5,69,-16,2
18,-4,18,3,30,16,-33,6,2
-41,-15,-19,27,-34,-1,93,3,2
32,39,28,13,18,29,67,8,2
-22,-40,-27,31,-4,12,104,20,2
20,11,8,6,15,25,55,15,2
4,10,4,-10,12,-60,-44,-1,2
-7,-5,-10,-11,-19,59,-54,3,2
24,34,14,-6,8,10,-120,-5,2
2,-9,3,4,5,5,105,-15,2
-9,-10,-10,-14,4,-3,27,-19,2
-6,-14,1,22,-8,-27,2,9,2
12,26,4,18,2,20,82,12,2
-12,-1,-2,-7,0,-36,-77,12,2
-25,-11,-14,-15,-28,28,37,-14,2
-7,-13,-11,1,-12,-30,-64,20,2
-9,3,6,-24,6,7,-76,-8,2
20,15,9,-5,13,12,-54,-19,2
-9,53,11,-14,-2,-33,5,-13,2
-21,-84,-20,9,-16,-39,-128,13,2
-16,-2,-6,-15,0,15,-18,2,2
25,3,-2,8,3,27,53,13,2
6,8,26,28,36,20,-56,0,2
-19,-2,-21,-16,-30,-19,127,-2,2
2,7,3,11,3,-4,-47,-5,2
-38,-23,-21,-19,-40,-74,-65,5,2
35,9,8,-7,15,41,30,-1,2
12,33,19,-26,25,-27,-43,-15,2
-3,-16,-8,20,-8,15,40,12,2
-36,-15,-14,6,-14,7,111,-28,2
-2,-2,-5,-2,3,-1,-83,0,2
19,20,30,5,27,19,-61,1,2
13,40,-17,-6,-15,-8,37,6,2
-25,-86,-6,18,3,21,-6,-3,2
20,43,1,19,-1,12,127,9,2
-6,-17,9,-9,10,1,31,-14,2
-2,18,2,-24,1,1,-44,-10,2
-8,14,-3,9,-17,-39,64,-15,2
-1,-30,-20,-16,-23,-6,-111,-2,2
-57,-17,-17,-30,-25,-69,-122,-38,2
10,9,18,-22,16,3,8,-15,2
19,20,12,-4,21,8,-94,4,2
1,-22,2,15,9,14,78,38,2
-15,23,-19,24,-33,-6,-25,-20,2
35,32,27,-5,34,-5,-30,8,2
-15,-19,-24,6,-12,18,1,12,2
18,7,10,-3,16,9,-41,-9,2
22,19,13,5,19,9,-11,18,2
-8,-17,-4,12,0,-5,11,16,2
6,44,14,-2,-2,17,-23,-7,2
0,-4,-5,-4,-1,4,-19,-9,2
3,-14,-5,-14,4,-7,-22,-17,2
-11,-1,5,-3,-11,7,52,-22,2
15,20,15,-22,14,-9,-55,-14,2
-13,-17,-13,-18,-4,-11,-43,-12,2
28,7,11,20,25,105,127,-1,2
-42,-16,-17,-7,-47,-68,-85,-19,2
-26,-16,-24,-11,-20,-26,-82,-8,2
29,-33,-1,4,24,38,99,29,2
-14,1,-5,31,-5,-11,81,-13,2
21,14,15,6,22,23,-20,-4,2
-4,8,2,-27,-7,-37,-65,-32,2
-23,10,-10,18,-29,0,77,4,2
40,20,19,-1,27,20,-24,31,2
-37,-34,-15,-3,-11,-9,-33,0,2
14,13,7,17,8,18,38,7,2
15,7,14,-8,19,-9,-68,-14,2
9,-7,2,-17,-1,-7,-68,-6,2
1,-11,-14,3,-20,44,113,-4,2
16,-11,1,18,7,12,-76,17,2
4,5,9,-9,10,-12,-18,-3,2
-7,-1,-5,-1,-7,5,-5,30,2
-6,-19,0,-19,1,-19,-108,-6,2
-1,14,2,6,-2,22,127,25,2
-11,-8,-1,20,4,7,103,-20,2
6,11,2,-11,-1,-25,39,-45,2
-13,-5,-5,26,-24,30,91,-26,2
0,28,2,10,-5,12,-16,17,2
5,-51,-22,26,9,-6,9,7,2
-15,-3,0,-16,1,-32,99,8,2
-13,-8,-14,14,-25,-16,104,2,2
2,8,9,-3,2,2,-82,-2,2
-6,18,3,-4,-12,-10,-68,5,2
16,3,5,4,21,9,-35,-2,2
24,10,13,-12,15,-5,-32,19,2
-37,-27,-21,4,-29,-39,-40,7,2
23,24,17,-12,25,-1,-5,13,2
-20,-1,-13,12,-32,-2,101,20,2
14,24,14,-16,9,5,-44,-10,2
-4,-53,-14,-16,9,18,19,-6,2
-8,-22,-21,12,-12,-22,-40,-12,2
26,20,14,8,16,14,8,18,2
-4,-6,-5,8,-7,-9,-60,1,2
16,34,13,17,11,-10,-7,11,2
-34,-23,1,-31,-17,12,5,-42,2
0,12,-2,14,11,6,-46,1,2
17,7,12,-3,32,2,-8,9,2
2,-7,4,-8,3,-6,84,-5,2
1,11,-9,-4,-30,-7,-73,7,2
11,9,2,19,-1,-4,-23,24,2
21,-11,-1,5,12,23,54,-1,2
-29,-23,-22,32,-32,23,109,-1,2
29,27,18,-10,21,30,47,4,2
-35,12,-19,-2,-20,-10,127,-33,2
-2,-74,-6,10,4,-40,-65,14,2
46,68,11,-28,9,-3,-45,-17,2
-35,8,-6,-19,-18,11,-6,-3,2
-2,-19,-6,33,-3,-8,-23,30,2
2,0,2,-13,0,9,-16,-6,2
-7,-49,-15,-7,7,1,-57,-7,2
-3,26,3,11,0,15,45,-19,2
1,-4,3,-17,-5,-43,-125,-24,2
-11,-3,-7,8,-9,19,62,7,2
3,28,17,-3,5,-30,-73,-8,2
3,-10,-1,-7,7,-9,-59,29,2
-14,-34,-14,-12,-9,-4,120,-3,2
-12,6,-4,-14,-7,-10,-51,6,2
4,23,8,12,2,12,41,-1,2
6,-18,-6,0,2,0,43,-2,2
-19,-23,-4,7,-12,10,38,0,2
9,35,7,-18,16,7,57,-4,2
13,-21,-1,0,7,35,15,10,2
15,19,5,33,1,-11,14,19,2
1,3,4,0,4,2,-72,-4,2
48,33,25,19,31,40,127,-16,2
-59,-41,-26,27,-43,-1,121,-25,2
9,34,8,16,-2,3,122,-1,2
17,-35,2,10,48,51,29,-12,2
6,29,-10,3,-32,-27,-128,12,2
15,-21,-3,-2,5,-20,33,12,2
5,22,10,-22,8,0,-83,-2,2
-9,-3,2,11,-9,10,93,7,2
-36,-11,-12,-22,-9,-25,-41,-33,2
-6,0,0,-6,4,0,13,1,2
-9,-21,-7,-13,-9,-34,-104,-1,2
1,33,2,-25,-15,-13,-81,6,2
2,-19,-5,-15,2,-1,-42,10,2
-20,-5,-7,-22,-11,-12,-66,-24,2
0,1,5,-11,15,-30,-69,-4,2
8,2,-5,-12,-18,27,69,9,2
11,87,17,12,32,7,60,-12,2
3,-95,-12,-21,6,-6,9,1,2
-11,-54,-9,-24,-4,1,-38,-19,2
8,17,-17,-21,-24,-8,-2,12,2
-10,-6,2,-1,6,-42,-55,32,2
18,61,13,-12,9,31,96,14,2
7,-8,1,-2,-4,0,-11,-1,2
11,0,8,15,9,9,-62,12,2
-4,-11,-1,23,0,10,86,4,2
9,1,2,0,1,-19,-124,15,2
-16,-10,-11,-1,-17,-18,-17,1,2
-9,4,0,-15,-8,15,-58,-12,2
-2,16,7,13,2,9,-15,-4,2
4,-32,4,16,14,10,117,1,2
4,55,2,18,-1,-7,64,11,2
-21,-31,-9,-18,-14,-3,-15,-13,2
4,-18,4,-1,6,4,-52,-7,2
2,-7,-4,-17,-16,2,-92,3,2
1,-1,0,12,16,7,-64,-4,2
9,15,9,5,14,-10,-74,-4,2
-19,-18,-10,-11,-11,-5,-84,6,2
-4,19,10,13,6,8,92,-15,2
-2,-2,-5,13,-8,12,-1,8,2
-16,-5,-2,9,1,-24,-13,-9,2
-13,-25,-8,-6,-3,4,0,-10,2
45,51,31,8,46,4,45,-2,2
-38,-5,-25,-3,-60,28,79,-17,2
-11,-17,-15,18,-1,-2,-46,2,2
9,30,12,-2,6,-3,-35,-1,2
39,3,12,-11,41,15,27,18,2
-21,11,-2,24,-10,42,79,0,2
12,-19,-4,-27,3,3,15,13,2
-14,-47,-14,-19,-24,-16,-6,-5,2
-7,23,1,12,3,-6,-52,6,2
24,-1,6,2,7,-27,17,14,2
-4,32,2,6,-7,1,51,-6,2
10,-19,4,13,18,30,69,16,2
-18,-11,-12,4,-31,-11,18,-3,2
21,-1,9,-12,21,-12,-52,1,2
-2,29,11,-11,-5,-13,29,-16,2
-5,33,0,-20,-8,-10,23,-24,2
-49,-57,-35,1,-56,-52,-128,-6,2
6,5,-1,6,7,2,31,3,2
34,4,16,8,30,16,65,4,2
3,8,10,-13,11,-30,-63,14,2
-6,17,-25,-1,-37,24,66,-8,2
-8,-26,-9,-6,-15,-23,-73,-9,2
21,26,14,-17,12,-5,-58,0,2
-12,-10,1,18,1,11,107,4,2
-20,-24,3,12,0,-4,-44,-5,2
21,-23,-16,-2,4,4,-17,13,2
2,40,-3,3,-6,14,8,18,2
8,2,-2,4,-1,-16,-55,-16,2
-33,-7,-18,-10,-39,4,21,13,2
-6,19,4,2,2,2,-30,-20,2
-4,-19,-3,0,2,-10,-106,4,2
13,-6,-1,16,14,19,91,1,2
3,18,9,-5,15,-28,-118,-17,2
-5,-10,1,-20,-2,8,52,9,2
-22,-37,-17,19,-18,-2,31,-1,2
-7,-13,-6,-2,-10,5,13,1,2
26,39,19,-11,26,18,-39,-2,2
-2,12,9,-16,9,-8,40,-25,2
0,-25,-7,0,-15,5,5,-1,2
1,-28,-3,3,-2,10,78,14,2
-2,-37,-5,15,0,-5,-50,5,2
21,34,8,-3,24,38,46,-2,2
1,10,1,18,-12,2,91,2,2
0,-3,-7,17,-13,-12,8,9,2
-3,5,-1,-6,-2,24,109,-29,2
17,5,17,-5,23,-23,-103,23,2
-63,-57,-30,3,-35,-12,119,-17,2
-19,8,-16,-16,-17,-16,-39,1,2
3,-27,0,-15,-3,6,-71,9,2
2,45,2,4,-7,-14,-45,13,2
29,23,26,-3,44,64,65,-7,2
7,-7,0,19,2,-4,19,3,2
14,42,13,-5,15,-1,26,12,2
-22,-54,-16,1,-19,10,30,4,2
8,-6,1,-3,9,0,23,-3,2
-11,-10,-6,0,-14,0,-52,-4,2
30,39,12,-5,13,9,-1,8,2
-6,5,17,4,3,1,35,-17,2
-2,-24,-20,25,-5,-17,44,26,2
13,0,-2,13,7,22,64,-15,2
14,24,6,-16,1,-29,-55,-27,2
6,1,11,-8,0,-32,-100,-24,2
-22,-26,-31,-36,-45,-16,21,-18,2
-38,-7,-6,-12,-7,-4,-75,3,2
9,6,3,6,13,18,4,-23,2
16,-22,-6,0,2,7,104,-13,2
-9,53,21,9,0,-45,-58,16,2
-6,-75,-29,0,5,31,-46,0,2
-15,20,-12,5,-20,-31,84,-13,2
-65,-48,-1,-6,-2,-7,-59,38,2
14,19,-7,16,-12,-9,5,-12,2
13,32,29,-11,10,6,8,-8,2
-18,8,-10,26,-11,0,95,14,2
15,-41,-3,8,22,-23,-90,-1,2
-11,5,-1,-32,-16,1,-92,1,2
10,7,8,-2,3,-7,-94,15,2
8,-15,-8,-11,7,29,-10,-3,2
1,6,-10,2,-17,-21,-61,-3,2
22,12,18,-4,26,19,16,3,2
11,-3,-5,-13,2,-10,20,-13,2
-13,-15,0,10,-11,-11,26,13,2
14,30,5,6,4,25,103,-3,2
5,-31,-1,-6,8,-1,-85,24,2
14,50,14,4,10,9,36,-1,2
-5,-31,3,-15,5,-18,-27,-1,2
5,-6,-15,2,-21,7,15,7,2
-7,23,8,-38,6,-37,-108,-23,2
14,14,5,8,-5,13,56,5,2
-24,-25,-12,4,-6,-19,-80,-5,2
18,2,0,1,-8,0,-68,1,2
4,-2,4,22,18,23,35,13,2
-9,48,1,-23,-10,-37,-57,-14,2
-31,-71,-12,-14,-16,-16,-40,-6,2
0,34,-6,3,3,18,106,-2,2
11,-12,2,8,10,-13,-70,-5,2
-11,-20,-5,-1,4,17,108,12,2
0,55,-7,9,-16,8,127,2,2
-10,10,20,-16,11,-22,-87,-17,2
-1,-24,-3,-3,5,20,43,-4,2
8,0,8,-3,7,13,-86,1,2
-18,-5,4,22,15,-2,-5,29,2
-15,-16,-9,17,-7,7,85,4,2
17,13,0,-5,-13,-7,-47,1,2
-25,-35,-8,-12,-2,-28,21,-19,2
31,34,14,4,12,42,38,5,2
-12,-15,-19,24,-14,-15,69,-6,2
-2,8,8,5,7,6,-99,11,2
28,24,15,9,20,-14,-42,24,2
-32,-25,-24,0,-50,-3,49,7,2
-22,-25,-7,5,13,18,-76,5,2
6,-6,-2,-9,-6,-9,-75,-19,2
-31,14,-1,15,10,9,-41,21,2
38,17,13,-8,21,-11,-41,11,2
-4,13,3,-27,-7,-1,-12,-5,2
3,-5,1,20,6,-4,118,3,2
-8,-20,-13,5,-24,12,60,-11,2
-10,46,16,-25,11,-11,-91,-37,2
0,-45,-18,-13,-11,-4,69,-9,2
-14,-8,-6,16,-5,-3,20,2,2
10,24,1,-18,-13,-8,-36,-19,2
-3,-20,-9,-5,0,-7,46,1,2
18,10,13,16,14,11,3,18,2
-4,20,3,-15,-11,-14,-10,21,2
-29,-57,-13,-5,-10,1,-30,-6,2
23,28,5,17,16,14,56,6,2
7,7,0,13,-5,-21,29,-17,2
-4,28,6,25,-2,5,58,14,2
16,-26,-17,-12,-13,5,-10,11,2
-6,-26,1,-1,9,-9,-78,-1,2
10,28,12,-20,9,-6,-36,11,2
-14,-36,-16,-10,-9,1,86,-25,2
23,46,17,33,15,4,81,6,2
-22,-62,-16,5,-12,11,62,-12,2
8,19,0,11,-6,8,-15,1,2
-2,8,3,-23,1,-6,-52,5,2
-2,1,0,-6,-1,-28,-92,-8,2
-11,2,4,9,-3,23,66,16,2
-17,-9,-9,-16,-8,14,90,-12,2
16,7,8,-4,8,-4,6,-23,2
-4,-9,-6,-1,-2,11,85,5,2
5,-12,-2,-8,3,-6,-14,8,2
-1,29,4,10,-5,-2,-30,38,2
-17,-31,-19,-26,9,-7,-70,-10,2
14,-19,-2,11,-4,1,77,24,2
1,36,4,8,-11,-17,48,6,2
-4,12,0,-7,-4,0,-67,25,2
7,15,8,8,1,-5,-109,33,2
16,25,12,-21,12,11,16,6,2
-13,-28,-11,-44,-5,-20,-80,-54,2
6,-2,4,1,0,23,91,-26,2
11,14,7,1,10,-18,-79,-10,2
-18,-16,-13,-13,-9,13,-5,-16,2
11,13,10,-6,9,-17,-107,3,2
-8,-5,-2,-9,2,-7,-27,-7,2
14,13,12,2,16,18,-21,10,2
-4,-16,-6,3,-10,-7,49,14,2
-3,-4,-7,12,-2,32,22,-2,2
-5,-7,-1,-1,-2,-3,-12,-6,2
-3,6,-4,1,-7,-3,51,7,2
6,-7,3,0,2,1,58,-3,2
-2,9,4,8,8,4,-31,5,2
-3,-15,-11,-33,-20,-43,-109,-29,2
2,-6,8,10,4,40,83,3,2
-39,1,-25,-21,-23,-54,-104,-40,2
17,-2,-4,-5,-15,2,-88,8,2
12,32,9,18,21,32,99,4,2
-19,-3,-2,17,-17,-31,-74,6,2
21,-16,1,9,15,18,49,-3,2
-10,-34,2,7,4,6,109,7,2
17,24,6,10,0,-6,-28,0,2
5,19,-6,-23,-11,-10,-3,-10,2
5,20,12,14,16,20,-49,-4,2
8,22,0,0,-1,-6,59,3,2
-1,-25,9,7,4,-6,-100,16,2
-21,-37,-20,-19,-19,-7,61,-22,2
-4,7,5,-7,8,-21,-128,-14,2
-8,-8,-5,-8,-3,3,0,-11,2
-2,8,3,-9,6,-6,26,-12,2
-19,-31,5,7,5,18,48,0,2
4,41,0,13,-3,30,127,1,2
18,-50,-17,10,0,-17,-115,11,2
5,-6,-3,12,9,10,87,10,2
17,17,5,4,2,8,89,10,2
-23,-19,3,3,-6,-18,-86,14,2
22,42,14,11,6,20,83,5,2
-14,-12,-3,-11,-4,-5,-71,-11,2
0,-3,-1,2,1,-11,-79,10,2
22,8,9,5,10,2,-29,9,2
-14,-13,-7,-11,-19,-5,61,-9,2
8,9,-3,12,1,5,-31,20,2
-8,32,7,5,-10,-30,44,-12,2
-24,-74,-30,10,-20,1,-9,-19,2
22,31,23,9,23,9,36,14,2
-22,-27,-16,-19,-13,-10,35,-36,2
30,-9,-3,7,12,26,39,7,2
-4,9,4,-1,-3,-24,-86,27,2
-17,-1,-2,1,-13,1,19,1,2
4,-12,4,-8,2,9,-27,-6,2
14,-7,1,2,9,11,51,3,2
7,29,15,17,-2,-1,20,14,2
-12,-18,-12,2,19,2,-101,2,2
-2,9,0,-1,-14,-12,64,22,2
-9,4,-6,-1,0,10,-25,-1,2
11,-28,8,-6,11,13,52,2,2
-10,18,5,3,-3,-9,15,-20,2
-10,12,-10,-5,-12,-18,6,-32,2
-8,-24,4,2,15,-12,-128,-9,2
-1,6,-11,-13,-24,10,119,-7,2
18,2,10,8,21,11,60,9,2
-2,-10,-9,11,-9,9,15,10,2
-5,3,2,6,9,3,3,0,2
-11,7,-3,-5,-7,-29,27,-39,2
-16,2,-10,-7,-6,15,70,4,2
11,48,26,19,6,16,103,12,2
-14,-80,-33,3,-9,4,123,3,2
-7,1,-10,-2,-4,-10,-96,-12,2
-12,-8,-5,-4,-14,-15,62,-11,2
0,-10,0,-12,4,-12,-83,-5,2
-3,26,6,-10,-9,4,55,-9,2
9,10,2,2,14,8,20,1,2
0,-2,-2,-7,-9,-7,-13,8,2
4,-5,2,15,-5,9,-18,8,2
23,35,11,-7,3,-7,-15,-6,2
-17,-28,-17,-5,-7,5,-78,14,2
12,49,23,6,5,-17,-117,-2,2
-8,-47,-31,-10,-11,-4,59,-5,2
-1,35,11,13,9,12,80,4,2
-13,-36,-6,9,-8,27,127,-7,2
13,-6,-8,4,-2,-5,-19,22,2
14,10,3,0,3,-7,-54,18,2
-6,-6,-3,3,-2,-11,-33,-9,2
10,20,7,-6,4,3,-14,0,2
2,-1,1,-12,-4,-1,-33,4,2
5,-13,-3,11,-2,4,42,9,2
-6,9,3,0,-2,-2,-51,-3,2
7,7,7,-2,6,1,81,12,2
-7,-14,-9,-9,-4,3,-18,-13,2
-4,5,-1,-12,-3,-2,-105,6,2
-2,-8,6,-9,3,-4,-46,3,2
10,-10,-13,-16,-4,5,-30,-8,2
14,26,6,-1,10,-2,-2,-4,2
-25,-44,-11,-7,-9,-18,32,-11,2
4,16,0,-2,-8,1,-44,6,2
3,11,16,-14,10,-6,-90,-8,2
-20,-10,-18,-26,-15,-14,-46,-26,2
3,3,5,-12,10,-9,-93,0,2
-18,-24,-17,-15,-16,-8,44,-15,2
13,31,10,-2,5,10,56,3,2
0,-5,3,3,2,4,28,3,2
0,19,11,2,11,5,32,-11,2
2,-34,-13,15,-5,14,61,6,2
2,21,4,5,4,-5,-33,2,2
-7,-46,-4,-2,0,1,-71,-10,2
-2,-3,-5,-2,-4,3,93,-15,2
19,56,3,-3,0,-3,-20,9,2
1,23,2,19,1,10,39,3,2
-1,-12,4,-3,8,-5,-79,5,2
-10,18,-1,-7,-9,9,-53,0,2
-7,18,-6,0,-9,-14,-85,-15,2
-8,-50,-10,-3,-3,-5,-15,5,2
9,18,8,0,7,-1,-105,4,2
0,-1,9,-20,18,6,-59,-11,2
-12,-23,-9,-8,-12,-1,-56,-12,2
-9,-4,-9,-9,-14,-12,-56,0,2
1,9,5,10,3,6,78,-5,2
9,1,-4,5,0,-3,19,2,2
-7,-7,4,-18,5,-8,-37,-19,2
-7,-3,-1,0,-4,-18,-22,2,2
3,7,-21,-5,-4,8,52,6,2
-17,-11,15,-2,-6,-17,-32,-5,2
5,0,-6,2,6,-1,33,13,2
4,0,0,0,0,-3,-11,-7,2
3,4,4,4,0,12,86,4,2
3,28,-4,8,1,-5,10,1,2
-5,-53,1,6,4,21,108,11,2
2,2,-13,14,4,11,33,-1,2
-5,17,0,-2,-5,-15,-37,2,2
30,17,8,-3,14,13,98,14,2
-7,23,-1,2,-6,1,-48,3,2
5,-29,2,-3,10,9,37,16,2
-11,22,7,-3,-19,-5,-10,-13,2
-5,-27,7,-11,6,4,-15,-6,2
12,0,-48,-4,2,-7,-5,2,2
-8,6,22,-2,6,6,30,-12,2
10,-3,-28,10,6,1,18,8,2
-12,-6,41,5,-10,-9,-16,-4,2
2,16,17,10,-2,-3,25,-3,2
4,-30,-40,-14,-5,-7,-25,-4,2
-9,-17,13,1,-3,6,-9,4,2
-1,-1,-22,3,-11,-9,40,12,2
5,11,9,-21,-1,-8,-128,-2,2
19,18,13,-5,13,20,5,12,2
-27,-27,-12,-1,-16,-24,-54,-9,2
4,-9,-21,-4,0,10,-6,7,2
0,4,23,2,8,-10,-45,3,2
-3,13,0,-1,-5,1,90,-1,2
23,13,12,-5,15,6,27,10,2
-4,-17,-5,22,-4,2,29,-4,2
0,-8,-2,4,0,3,5,9,2
7,13,6,-3,-6,-5,4,0,2
-8,56,11,8,-1,-7,50,-11,2
-17,-15,-21,3,-8,-4,14,9,2
3,-32,3,-3,3,7,101,-6,2
-19,-15,-13,-8,-14,-3,9,-11,2
14,-14,11,15,3,20,112,18,2
2,41,2,-1,3,-4,-85,-12,2
-18,-4,-11,-13,-14,-10,29,-7,2
2,9,10,4,-1,-7,-74,8,2
2,-6,-2,-13,5,-2,-72,-12,2
0,-14,-2,-13,0,8,-12,-3,2
0,-12,0,-5,0,-5,-12,-6,2
4,18,10,22,-7,0,2,10,2
11,-17,0,-14,3,-1,-106,6,2
0,-21,-16,8,1,2,77,4,2
10,-6,-24,11,-1,6,37,5,2
7,21,30,-15,0,-11,-70,-5,2
1,-24,0,5,-1,4,40,2,2
11,15,11,6,3,8,-9,-8,2
-11,0,-5,-6,-12,-15,-87,-5,2
2,9,-9,-13,0,-14,-22,-8,2
-1,-3,-2,-32,5,-10,-6,-15,2
-13,-8,-14,-19,-22,-16,-18,10,2
-1,23,14,1,0,11,-52,3,2
-13,-33,-18,-23,-8,-19,-89,4,2
-3,-10,0,12,10,5,26,5,2
-8,-12,-2,-10,6,-5,-38,-13,2
1,-9,9,-10,4,4,33,-5,2
-4,38,4,-15,-11,-8,-17,-7,2
-9,-23,-8,13,-5,0,-23,-5,2
8,2,-2,-4,6,-2,-78,2,2
2,2,3,15,-4,8,127,9,2
17,1,4,32,15,25,127,7,2
-15,0,7,-16,-6,-14,-19,-17,2
-2,16,-16,-12,-13,-1,-22,-22,2
-23,-71,-9,-19,-2,-15,-3,-4,2
2,11,-4,6,-1,7,2,-1,2
11,15,-1,5,3,6,-8,8,2
5,34,20,12,5,9,60,7,2
9,22,0,8,4,-8,8,-1,2
-4,-28,2,22,1,14,-45,2,2
-7,18,-12,-15,-9,-12,-35,-12,2
11,-2,6,18,1,9,39,12,2
10,23,14,4,13,18,30,8,2
8,-7,-1,14,10,-25,24,6,2
7,1,5,3,-9,48,87,-13,2
-23,-23,-10,3,-10,-43,-59,-5,2
18,22,8,-8,-1,20,3,7,2
-18,-6,-9,-7,-8,-10,-114,-6,2
10,-2,3,13,10,1,65,15,2
15,48,10,-8,6,16,98,4,2
-9,-36,1,12,-5,-6,-12,-5,2
-15,-38,-4,-2,1,-3,21,-11,2
-3,8,-11,0,-14,-14,-20,2,2
3,1,6,-8,4,8,3,-3,2
13,35,10,14,11,4,-5,6,2
-26,-14,-17,-5,-31,-17,127,-15,2
-19,-17,-7,21,-10,-20,-25,8,2
0,-6,4,-10,-2,1,-3,-4,2
-4,-34,-18,2,-3,-3,20,5,2
7,16,3,-15,7,5,-67,-7,2
8,-9,0,-7,4,-14,-59,8,2
-12,-19,0,0,-5,-2,34,-8,2
12,15,1,6,-5,-9,0,12,2
5,4,-3,-11,-2,9,-27,7,2
-6,29,3,-22,4,-14,-73,-18,2
-7,-50,-6,4,4,29,67,12,2
-13,-8,-5,-14,-11,-16,-65,-11,2
4,10,0,-2,0,-3,-13,1,2
12,25,16,10,8,22,108,-6,2
8,-18,0,19,25,9,48,-2,2
-35,0,-18,1,-23,10,83,-45,2
-2,-4,-1,21,-6,4,30,4,2
0,-1,-3,-7,-8,-6,-24,-8,2
9,-1,4,-6,4,-8,-43,12,2
24,-12,10,4,15,12,76,15,2
-37,-4,-16,12,-20,-9,-31,-5,2
-15,-15,-19,-9,-12,-10,-33,2,2
10,53,6,21,2,13,63,10,2
7,-9,6,-1,14,-11,-70,9,2
8,3,1,-10,9,14,83,0,2
1,-1,2,-2,0,-12,-55,-3,2
-19,-8,-9,-13,-21,-29,6,-5,2
-4,7,-2,-6,-1,-4,-68,-3,2
20,22,15,15,14,17,103,10,2
-8,-21,-11,23,-13,11,97,12,2
2,20,6,-9,-1,-16,-81,-4,2
5,13,1,41,5,9,87,11,2
-4,-39,-13,2,-14,7,107,9,2
21,23,7,9,10,13,78,3,2
-21,-24,-12,1,-7,-40,-46,-11,2
-13,11,-15,-32,-27,15,-34,-48,2
9,8,5,-19,12,-23,-128,3,2
-15,-4,-2,-18,0,-22,-62,-12,2
-11,-5,-4,1,-2,15,67,-12,2
11,13,7,-11,7,-10,26,12,2
-1,31,5,4,-9,0,66,-19,2
6,-87,-6,-5,8,2,-33,7,2
26,59,11,5,3,1,-12,6,2
-2,-24,-15,-9,-6,-2,-12,15,2
-10,-2,-4,-37,-8,-11,-128,-16,2
3,4,5,20,-1,9,100,21,2
-1,-14,5,5,5,0,-9,-10,2
0,10,1,-10,-4,-8,-106,0,2
9,10,6,6,11,12,45,3,2
-2,12,-4,3,-6,5,1,-13,2
1,-11,-6,0,1,4,-2,-3,2
19,20,16,-3,20,11,12,4,2
-3,-6,3,5,15,-28,-98,6,2
-7,-11,0,-12,-24,15,-54,10,2
15,46,11,-4,19,-1,-124,-12,2
-58,-78,-35,-25,-47,-47,-38,-12,2
5,-3,-10,24,-6,28,71,9,2
20,19,10,2,15,-8,-42,16,2
-1,-3,-3,-38,-19,-14,-103,-33,2
-5,19,11,-3,6,-6,-18,7,2
0,-2,1,-15,1,-2,-50,3,2
-19,5,-6,0,0,-2,24,-13,2
12,-11,1,-9,0,12,49,6,2
3,-7,4,5,4,-15,-96,-10,2
5,18,-5,2,-13,5,46,-4,2
8,4,8,4,8,-9,-17,17,2
2,-8,4,5,16,-13,-42,-3,2
-4,7,-1,16,-3,15,127,3,2
-14,-15,0,-6,-10,-19,-115,-6,2
-4,-4,-11,-8,-1,-17,-70,-10,2
-1,-16,-9,1,-5,9,51,9,2
-26,-14,-5,-16,-7,-16,-98,-18,2
10,-2,9,8,4,-6,37,-6,2
1,29,3,-14,5,14,-70,-17,2
-1,-30,-11,9,-8,5,-81,22,2
20,29,5,-7,5,17,114,1,2
-3,-3,1,5,2,-1,-56,8,2
3,4,12,-6,18,14,-7,-14,2
-19,-8,-9,-3,-25,-26,64,-30,2
-11,-3,-2,-1,-22,-3,-35,12,2
-2,-14,-7,9,3,2,-13,2,2
9,-6,-1,-1,1,6,42,14,2
-9,-3,3,-32,15,-19,-25,-54,2
2,16,5,15,6,25,64,16,2
-11,24,6,5,-2,11,109,-8,2
2,-57,-23,-8,-5,-4,-60,5,2
9,18,-2,1,-10,-1,-68,20,2
9,12,4,12,5,-13,-9,-10,2
-6,-20,-8,19,0,12,49,3,2
13,32,15,7,12,26,116,2,2
8,0,-1,8,-1,5,-3,6,2
6,-6,2,14,11,9,25,-11,2
6,22,11,-49,1,-16,-89,-30,2
-26,-5,-11,-16,-32,-67,-33,4,2
-12,-47,-18,7,-10,-3,-60,23,2
1,23,-4,1,-4,35,11,8,2
31,6,12,1,34,21,-69,9,2
-32,6,-1,-23,-21,-37,-55,-1,2
-14,-6,-8,26,-12,12,93,7,2
36,9,15,8,31,-5,66,6,2
-18,-15,-16,25,-27,24,124,24,2
7,-7,3,11,6,29,125,0,2
17,82,34,26,31,27,83,22,2
-13,-66,-28,-10,-30,-51,-88,3,2
10,-17,3,-16,16,8,67,-51,2
-14,-21,-18,46,-23,10,116,15,2
-9,-9,2,-2,-1,23,-15,-2,2
14,49,10,-11,14,-8,-103,3,2
9,33,8,-8,14,-5,-53,0,2
20,-36,4,20,18,25,27,6,2
-52,-36,-26,-24,-43,-33,64,-32,2
1,-5,-1,42,-1,24,108,19,2
-2,-15,-6,12,-2,3,96,5,2
7,34,6,7,5,13,22,-11,2
12,10,15,-23,35,2,-23,6,2
-32,-49,-20,-13,-12,66,62,-48,2
0,4,-6,36,-19,12,96,33,2
-5,10,1,12,0,5,62,-5,2
13,-13,-7,6,-7,6,45,16,2
6,23,13,-9,16,-2,-28,7,2
21,10,10,-20,9,-14,-125,17,2
-1,8,-3,18,-7,9,62,3,2
5,7,1,8,0,8,34,19,2
-3,20,14,-2,-1,-6,16,20,2
-23,-62,-27,3,2,-9,-31,-70,2
13,2,-2,-29,-14,-73,-128,-8,2
5,17,14,-3,23,5,12,0,2
-6,3,-1,11,-22,-1,60,16,2
17,22,12,7,8,-13,-12,19,2
-24,-8,-8,-7,-10,-13,15,-10,2
14,-3,2,7,13,19,75,-5,2
8,9,8,-23,22,45,33,-34,2
9,1,2,6,2,-9,40,25,2
-11,-8,-11,13,-14,11,83,-5,2
-27,-23,-19,7,-34,-19,-90,20,2
20,3,3,-3,19,-22,-86,23,2
9,3,0,-34,2,37,47,-46,2
2,5,9,10,19,-1,-49,34,2
10,5,0,-5,-3,2,51,-4,2
4,4,2,-2,-1,7,-48,0,2
10,26,4,4,-7,-14,56,26,2
-1,11,19,-4,37,16,-69,-34,2
-28,-68,-37,-16,-42,-26,-74,-15,2
-15,-12,-7,28,-4,-34,72,5,2
-7,10,-1,-24,-17,-15,-72,6,2
48,35,31,-19,41,29,-28,1,2
5,28,10,-2,-2,14,-31,33,2
-13,-23,-28,-22,-29,-13,-63,-28,2
-19,7,-7,-7,2,-10,-78,-20,2
-11,-2,-7,-15,-13,-3,63,-1,2
22,25,17,-7,32,29,64,-9,2
6,7,1,-19,-17,-61,-128,-6,2
-17,-26,-3,7,3,9,21,-2,2
13,7,-1,-3,-5,13,-39,7,2
1,-3,4,-3,4,-2,-43,-4,2
6,9,13,22,12,30,127,21,2
0,24,2,-6,-15,-43,-113,2,2
-7,-63,-27,27,-11,1,111,17,2
-44,-7,-14,-14,-34,-71,-66,-52,2
-6,-38,-13,-5,-2,-7,100,-22,2
-2,3,4,27,7,29,68,16,2
-13,8,-5,17,-17,-41,47,45,2
-16,-15,-9,31,-5,12,124,-5,2
19,22,11,11,15,9,67,22,2
-26,-16,-6,-17,-15,-37,-8,-7,2
-2,-1,-3,-20,-13,-2,-104,5,2
72,32,32,31,59,71,73,66,2
-78,12,-29,6,-71,-79,-128,-6,2
-5,-72,-12,-1,12,29,107,15,2
11,16,-4,12,6,1,31,-26,2
16,3,-5,26,-11,-10,-25,37,2
14,10,31,-15,78,45,-43,-46,2
18,31,17,-11,3,5,99,-31,2
-14,-5,-14,33,-26,15,35,20,2
-29,-27,-16,-10,-25,-1,85,-21,2
16,7,6,3,9,12,26,6,2
4,4,-1,1,4,-4,0,6,2
8,3,10,-5,14,17,87,-6,2
14,-9,11,-5,17,37,39,-18,2
5,25,-7,5,-14,-57,-58,18,2
-21,-23,-17,-18,-19,-54,-93,-6,2
12,59,29,-36,14,15,53,-19,2
-32,-81,-48,-19,-32,-23,60,-44,2
3,-13,-1,14,22,10,-63,1,2
-37,-34,-26,-19,-45,9,0,-9,2
-20,4,-10,11,-21,-40,-51,11,2
23,37,25,0,27,7,45,17,2
3,-10,-2,-11,-10,18,37,-7,2
26,32,7,10,19,7,-30,1,2
-17,-13,0,-37,-3,-20,-61,-36,2
-24,-6,-17,-8,-39,9,-16,5,2
0,-43,-11,1,5,22,11,7,2
35,57,27,15,19,33,74,34,2
21,4,13,14,27,20,16,3,2
21,9,4,18,10,-20,-128,21,2
3,12,6,-9,-4,15,-21,-23,2
6,-8,2,0,2,-35,-51,22,2
14,-5,-2,-2,5,44,56,21,2
-1,15,2,-7,4,-19,-71,-13,2
-5,4,3,-16,-11,17,102,8,2
39,13,12,37,14,13,-11,25,2
-25,-55,-29,-3,-11,-30,-14,-5,2
10,37,14,-7,-3,-4,-25,6,2
-9,-54,-9,-22,-1,12,43,-20,2
-24,-5,-4,-12,-17,-20,-72,-4,2
8,30,-1,-43,-22,-26,-93,-21,2
-34,-36,-11,19,8,14,114,-4,2
26,17,2,18,8,-2,73,35,2
1,-4,7,11,16,22,30,7,2
1,5,11,2,-1,-6,-71,-16,2
2,9,-3,-4,-2,5,3,5,2
-2,8,7,21,0,-3,110,4,2
-2,-14,-7,13,-2,1,-33,-4,2
13,13,8,4,16,8,10,6,2
-1,7,7,-33,-1,-2,121,-74,2
-42,-27,-25,-3,-35,-22,-128,-1,2
-11,-12,-4,7,6,29,123,-17,2
25,16,5,33,3,-4,51,28,2
-34,-30,-8,-20,-7,-51,-119,-1,2
37,41,22,6,29,12,70,25,2
-13,-39,-23,1,-27,7,103,-1,2
-1,25,4,8,0,27,10,7,2
24,-17,-4,-8,10,-5,-95,24,2
9,18,1,4,2,0,-12,-2,2
-12,-32,7,-15,6,0,-49,-3,2
12,9,7,-4,25,10,51,-14,2
1,10,-1,23,-10,51,43,30,2
-13,5,-9,9,-26,-68,-7,2,2
26,23,0,-2,-9,0,54,19,2
-22,-39,1,8,23,7,-46,-7,2
-21,6,-5,2,-11,-25,88,-21,2
-16,-25,-18,-15,-36,28,-61,35,2
11,26,4,-3,8,27,9,-5,2
-1,1,6,-7,0,-34,-32,0,2
15,1,-4,-15,3,-1,7,-10,2
-4,4,6,-5,3,-6,63,20,2
1,20,-10,-16,-10,-18,-93,-9,2
28,-11,3,-5,16,32,45,35,2
-52,-12,-7,-11,-18,-47,68,-71,2
-3,-12,-9,1,-22,-2,-58,-2,2
-14,-1,-3,13,3,-16,-33,20,2
-3,-1,-4,6,-7,9,23,7,2
31,14,12,7,19,6,-35,32,2
8,3,6,-14,15,15,-10,-24,2
-6,15,2,4,0,-5,38,20,2
-32,-20,-10,-21,-22,-24,-108,-65,2
-5,17,8,5,0,0,-118,19,2
-17,-88,-13,-20,14,24,40,-19,2
35,36,9,19,6,-8,-33,-2,2
17,-5,-8,25,-14,21,84,45,2
0,21,6,-9,5,-35,-95,-62,2
-22,2,2,-10,-12,-12,-110,-3,2
1,-1,6,-6,16,21,59,-3,2
-4,-4,2,10,8,10,36,11,2
29,9,8,0,11,-23,-99,21,2
-5,13,-7,-19,-3,0,-22,-23,2
-31,-30,-8,-14,-13,-15,25,-53,2
-46,-9,-20,-2,-31,-18,28,-43,2
31,19,19,20,28,40,99,33,2
31,18,1,16,9,22,124,8,2
-27,-14,-15,-5,-19,-57,-126,28,2
-17,-28,3,-25,-2,-28,-59,-21,2
-11,-16,-27,-18,-25,46,47,12,2
30,34,16,28,12,-3,-56,19,2
-24,-15,-8,-2,-5,-4,-69,-15,2
13,5,2,0,7,-2,-20,1,2
-1,1,6,12,0,-3,54,13,2
1,16,3,-9,-3,-11,12,-18,2
2,-2,-1,1,7,5,-53,-5,2
25,21,13,-24,20,-17,-108,-7,2
-9,-8,-9,-3,-31,12,49,16,2
-12,-22,-4,-12,5,-3,-18,-16,2
19,28,10,-10,11,-5,13,5,2
1,-42,7,0,3,27,71,36,2
7,17,-19,-12,-5,-17,-69,-9,2
-8,18,7,-10,0,-5,26,-29,2
17,7,7,-15,0,6,-77,9,2
-31,-24,-21,3,-17,-5,-39,-24,2
0,4,4,-8,-5,-19,-102,9,2
-13,-9,-1,6,9,4,47,10,2
1,15,6,6,1,27,127,-2,2
0,15,-7,6,-14,-1,47,-20,2
1,-22,5,12,19,11,62,3,2
6,9,-4,7,-9,-27,-2,15,2
-1,-8,2,4,2,13,6,-10,2
12,8,-1,-23,-2,-25,-83,9,2
-18,-21,-8,-1,-10,1,2,13,2
-8,2,-2,17,-9,-17,31,12,2
10,16,2,2,3,2,-53,-8,2
-5,20,12,-6,8,-6,-40,-5,2
-22,-58,-21,-19,-26,14,7,6,2
-2,5,0,12,3,8,-60,-17,2
-6,-38,-5,-9,2,-5,-12,3,2
-3,10,-3,8,-7,-9,-52,-7,2
25,54,18,-2,21,5,72,-10,2
-17,-38,-4,-23,6,5,-48,-21,2
-20,-5,-11,18,-21,-1,127,-7,2
18,28,8,-2,10,24,8,8,2
2,-4,6,-12,3,-20,4,-27,2
-15,-6,-10,-21,-5,17,-24,4,2
-11,-4,-6,-9,-21,-22,-22,-11,2
-4,-28,-11,13,-1,2,-47,5,2
-1,8,-1,11,11,-11,-107,14,2
35,61,23,-6,16,9,17,-11,2
-13,-35,-7,12,6,3,90,4,2
-5,-13,-3,-1,-2,-14,-54,1,2
-10,-11,-3,2,-7,12,3,-3,2
11,-3,14,0,14,-8,-112,30,2
22,21,5,-11,2,9,-53,11,2
-5,13,-2,3,-1,17,108,4,2
4,-3,0,11,-2,-17,-51,17,2
3,9,3,-3,-4,2,21,-1,2
2,-15,-5,-12,7,5,-31,-15,2
-15,-27,-1,-2,0,2,44,17,2
8,16,2,-8,-3,1,7,8,2
30,20,5,21,20,15,-16,26,2
-21,27,2,1,-21,-15,-52,-7,2
6,-46,-12,0,-1,14,12,-7,2
0,-10,4,12,11,2,76,-7,2
4,-9,-4,9,-4,-31,-27,17,2
-6,1,-13,-14,-21,0,-22,-18,2
-21,1,3,-14,1,-1,-85,-7,2
10,6,7,9,10,6,-46,8,2
-2,-15,-7,-1,-6,0,87,-7,2
13,10,14,20,18,1,58,7,2
-13,3,-14,-5,-24,-6,-47,-28,2
8,13,2,1,-5,12,-2,6,2
4,-8,0,-11,12,-13,-48,-6,2
0,4,9,-15,-2,-14,-86,-1,2
7,-11,-18,4,-9,-2,127,15,2
2,3,1,25,5,14,85,2,2
-7,21,4,-3,-10,3,73,-5,2
15,-7,7,3,19,15,-104,-10,2
7,21,15,3,-5,-19,33,-1,2
-17,4,-21,-15,-10,-12,-16,1,2
3,-19,-2,-1,6,9,26,-6,2
-14,-19,-9,-18,-5,4,43,-5,2
2,12,5,-10,3,3,-71,8,2
3,-2,8,13,6,8,-2,-8,2
-5,-5,-4,18,-4,-8,-30,3,2
9,14,2,-22,8,-1,-1,7,2
-18,2,-6,-33,-12,-28,45,-58,2
9,-13,-5,5,0,25,111,9,2
-9,-18,-6,6,-4,0,-91,-1,2
0,25,5,-1,3,-6,-71,1,2
5,-12,-4,17,3,11,80,14,2
3,-2,3,-3,-4,-22,-104,-9,2
-15,10,5,-10,-7,2,-18,-16,2
-3,-44,-18,5,-6,-8,60,4,2
29,19,16,4,16,11,-79,24,2
-18,-9,-8,-11,7,-4,-50,-6,2
-6,-1,-5,23,-11,41,113,4,2
-4,-1,-3,-3,-6,-15,-70,-11,2
14,19,12,14,20,19,60,-5,2
0,-13,-6,-10,-14,-24,-128,1,2
7,7,3,-10,4,-8,32,-2,2
-3,6,0,1,10,17,16,-6,2
-1,-24,-5,0,-1,8,48,-1,2
2,34,10,-4,1,-12,-43,1,2
-8,-22,-9,-11,-8,-2,26,-23,2
4,-9,5,19,4,2,23,21,2
-11,-16,-20,-19,-8,-7,-87,-58,2
1,2,2,18,9,10,62,5,2
-3,3,1,-8,-13,-28,-128,10,2
-3,5,1,12,2,-1,22,-1,2
-11,3,-19,9,-13,-6,-9,16,2
25,10,11,-3,12,21,89,0,2
23,8,-2,-1,9,1,96,4,2
-15,-12,-4,19,-12,-2,127,28,2
5,15,8,4,-1,1,-86,21,2
2,-10,9,-11,7,-4,-42,-7,2
-11,0,0,-20,-6,-34,-128,9,2
-1,-10,-6,-2,-5,-16,39,12,2
2,6,2,-1,-2,4,16,8,2
-4,-20,-6,3,-5,8,19,8,2
3,48,10,-2,8,5,-51,-4,2
7,-24,-10,-15,8,-13,-96,-5,2
-9,-9,-9,11,-4,-7,33,11,2
-7,-6,1,3,-6,11,-63,-5,2
-7,-21,-13,-13,-16,-12,-20,-25,2
16,43,7,4,5,20,76,4,2
11,13,11,23,10,11,57,37,2
-18,3,-4,-1,-2,-9,-57,4,2
9,-1,6,10,17,15,125,-13,2
-12,-23,-16,8,-29,-36,-128,1,2
6,2,5,-10,0,10,27,1,2
-5,23,0,-15,-10,-11,25,-15,2
-23,-61,-14,-2,-1,-7,-17,-20,2
-1,-16,13,-19,7,10,42,-5,2
-15,14,-13,7,-12,-21,-29,0,2
9,6,-1,3,-10,-7,44,-3,2
1,-6,0,-5,0,3,-94,14,2
-2,32,14,-3,10,7,-9,-13,2
-3,6,-4,-10,-11,-1,2,-7,2
19,-19,2,7,16,3,-4,19,2
-5,15,-2,-12,-2,-9,13,-15,2
-9,-15,-11,1,-17,26,-32,1,2
0,-1,2,-3,0,-21,-128,7,2
-9,3,-5,-15,-7,-9,-14,-14,2
7,-11,0,-8,6,1,-40,5,2
-12,-1,-2,1,4,2,-50,3,2
34,25,19,-5,21,17,-15,8,2
-27,-45,-24,5,-36,-13,105,-8,2
4,14,3,13,3,14,52,22,2
9,6,2,-4,6,5,12,-15,2
-5,8,12,-5,8,18,38,1,2
-4,-18,-11,0,-3,-18,-68,3,2
5,2,1,2,0,3,-20,0,2
6,3,0,-9,-1,-2,90,-4,2
-4,-3,-1,19,-1,6,62,-1,2
-4,12,5,-9,1,0,-26,2,2
-8,-12,-8,-17,-11,-17,-65,-10,2
18,0,10,5,14,16,83,14,2
-1,16,-1,-21,-7,-12,-76,-8,2
5,20,11,-3,11,2,13,12,2
-14,0,-14,5,-14,2,57,-30,2
-2,0,3,4,4,-25,-108,-4,2
-5,-17,-7,-9,-12,6,110,7,2
9,5,5,14,11,15,-32,12,2
23,24,11,25,5,15,110,15,2
-2,-2,-1,-18,8,-14,-34,-11,2
-25,-26,-18,10,-27,18,127,-28,2
4,1,0,5,6,8,79,1,2
-2,5,0,13,-4,9,75,12,2
7,28,4,23,9,11,19,1,2
8,-33,-1,1,11,2,0,2,2
-8,6,-6,4,-2,4,88,-19,2
3,-1,2,-4,3,14,-34,-3,2
-11,-29,-11,-20,-11,-22,-32,-3,2
8,43,0,4,3,5,80,8,2
-29,-60,-13,1,-5,-8,38,-10,2
2,33,1,3,-5,-16,-72,6,2
4,3,4,-4,4,14,25,1,2
0,3,5,1,5,-18,-128,-7,2
9,10,5,1,5,7,11,-2,2
-8,-13,-2,-19,-8,-49,-71,2,2
-2,-6,-5,7,-2,27,108,-5,2
2,7,3,-2,-8,-13,-50,12,2
-1,-2,-1,7,-10,-13,-62,-3,2
-9,-22,2,-15,6,10,-97,-7,2
8,26,1,19,2,0,28,10,2
-37,-25,-5,6,0,-21,-83,11,2
28,1,6,-1,13,31,77,-3,2
2,-3,-7,12,-7,-10,47,-7,2
-23,-3,-5,9,-15,-11,-92,-1,2
8,-19,6,-19,18,16,30,2,2
-10,26,-8,-11,-12,-48,-86,-12,2
14,27,12,-11,12,26,81,-1,2
-5,-2,-9,-18,-15,8,-63,7,2
1,-14,-8,15,-12,-8,-3,8,2
4,-2,11,-8,13,-2,-128,7,2
-2,-3,-9,-14,6,0,45,-4,2
1,-3,8,-2,10,-6,123,-24,2
-12,14,-4,4,-21,4,-70,-3,2
6,-31,-7,-14,3,13,32,15,2
-3,2,-1,18,-2,4,-4,7,2
28,21,14,17,26,14,93,14,2
-27,-15,-17,5,-28,-29,45,-33,2
2,10,4,3,-9,15,102,11,2
-3,-3,2,6,2,-2,-13,-2,2
-5,-17,-9,-9,-9,-13,-88,-10,2
29,11,15,-6,20,1,12,-3,2
-9,17,0,2,-7,-12,-42,-19,2
-11,-26,-10,15,-14,8,67,12,2
18,-7,10,-8,22,-2,-84,-4,2
-10,25,-3,-13,-20,-4,-64,3,2
-2,-15,-3,2,-1,7,-18,1,2
2,11,6,-5,0,-7,18,-14,2
-12,-9,-9,4,-6,7,51,-5,2
10,-21,7,-10,25,-17,-79,8,2
-1,14,-2,-3,-10,23,64,-8,2
5,-9,-1,7,-3,-1,-43,13,2
-7,13,2,-10,-13,-11,-55,3,2
12,22,10,12,20,7,98,-13,2
-4,4,-1,10,-2,-16,21,8,2
-8,-2,-2,0,-2,-11,-61,-6,2
0,-43,-9,-17,-13,15,-19,11,2
-1,-15,-9,11,-3,14,18,14,2
15,38,18,6,19,-7,-85,8,2
-14,-26,-13,-10,-17,20,60,-2,2
-11,3,-6,-11,-13,-34,38,-20,2
2,16,0,-14,4,0,36,-9,2
-8,-20,-5,2,-10,-6,64,8,2
2,6,1,-10,5,-7,-33,9,2
-5,-13,-2,-5,-6,-3,-15,-1,2
10,16,-7,4,-11,2,61,1,2
8,39,8,-6,12,-3,-21,-15,2
-1,-25,-5,14,-3,8,54,10,2
-9,5,0,-5,-3,-9,-64,-4,2
-10,-22,0,-1,0,2,-35,4,2
1,-16,-3,-2,2,0,-36,5,2
7,39,6,8,6,5,85,0,2
3,-27,-4,-3,5,6,-99,14,2
-2,23,-2,14,-4,15,107,7,2
-5,-63,-8,-16,7,-6,-85,11,2
-4,-1,-2,5,-12,9,75,-9,2
0,34,10,10,8,14,108,0,2
-9,-53,-16,5,-6,-23,13,-16,2
2,10,-1,16,0,11,81,0,2
10,11,6,-6,15,-19,-119,8,2
-5,4,-6,5,-8,19,76,4,2
-8,8,2,-13,-2,12,-8,-12,2
0,0,0,11,2,0,88,-4,2
5,-1,2,-22,5,-25,-111,4,2
-2,1,-1,15,1,-1,108,6,2
-1,1,1,-8,-6,-2,-49,2,2
2,0,-1,-5,-2,4,-14,-6,2
4,1,5,3,4,9,-25,3,2
3,10,-5,17,-3,-4,-24,9,2
5,-6,-2,-7,-1,0,-68,0,2
-19,-20,-3,6,4,-8,-63,-6,2
-11,4,1,-3,-9,-11,-50,-16,2
-2,-27,-7,4,0,6,79,-3,2
14,14,5,15,6,-5,1,1,2
13,23,10,4,9,19,107,0,2
0,-23,-11,9,0,0,-89,21,2
-9,2,-7,-8,-18,-9,5,4,2
-5,-4,2,-4,12,4,-74,-4,2
9,13,3,-10,8,-9,-104,-1,2
-4,12,9,-11,-2,7,31,-9,2
-1,-6,-4,-6,4,-3,-49,-4,2
7,3,4,11,0,-1,15,7,2
-18,-25,-18,1,-20,-23,-97,-6,2
10,-2,2,6,2,8,110,18,2
-17,9,4,-11,9,-20,-128,-19,2
-25,-35,-12,-11,-22,4,71,-5,2
-6,11,-6,-26,-19,-23,-79,-10,2
-3,10,-1,1,-5,-8,127,4,2
4,-9,5,3,8,15,89,-2,2
7,41,10,-9,11,-6,11,-8,2
1,-20,-5,3,-2,8,-11,7,2
-7,-12,-7,-3,-6,-5,-17,-12,2
8,11,4,1,1,-12,-100,-2,2
3,0,3,-9,2,6,23,9,2
0,2,-3,-8,-10,8,76,-5,2
-3,8,4,15,12,8,-50,-8,2
13,-9,5,5,13,6,93,-9,2
-5,-8,-8,11,-14,-2,83,13,2
6,3,7,11,6,14,39,13,2
12,-3,3,-4,4,-8,74,10,2
-28,1,-11,6,-31,-26,-34,-21,2
6,-2,-2,-6,5,3,14,-2,2
-9,-15,-1,-3,-2,-3,11,-6,2
17,38,2,3,8,13,-9,1,2
0,-48,-13,-21,-8,-18,-82,19,2
-12,-2,-4,5,-5,-6,31,11,2
10,21,4,-5,1,-7,-24,-5,2
-4,-4,1,-18,6,12,53,-10,2
12,31,9,9,-6,-10,-48,3,2
-2,-17,-6,10,-8,19,18,2,2
10,20,5,-3,3,9,105,3,2
-9,-30,-9,23,0,-5,11,8,2
2,20,6,-5,5,12,69,-1,2
-1,-15,-3,-9,7,-15,-76,-20,2
3,7,5,4,2,3,47,-3,2
-5,9,3,-4,-4,-11,-80,5,2
-16,-10,-16,-11,-23,-2,-75,1,2
5,-16,-3,-1,5,-2,5,11,2
-9,37,11,-10,1,-11,-65,-45,2
-16,-55,-14,-7,-4,-10,-26,-21,2
-4,5,0,5,-6,-2,89,-3,2
6,9,1,10,-4,1,0,4,2
-3,-4,-4,2,1,-1,-37,3,2
10,19,7,0,-3,9,47,2,2
6,10,10,17,19,12,28,0,2
-2,8,0,-4,-4,-1,17,-9,2
-16,-27,-8,-3,-10,-13,-20,-1,2
-9,-3,-6,-8,-8,4,33,-7,2
12,5,4,2,12,14,93,4,2
-27,-16,-10,1,-20,-36,-62,-11,2
8,-1,2,-9,-3,19,44,15,2
8,-18,-12,7,-1,4,16,26,2
4,14,5,5,9,7,-19,8,2
18,23,13,-12,17,6,15,-2,2
-2,-28,-2,4,-1,-10,38,2,2
-9,13,-8,-28,-18,-18,-2,-42,2
1,-12,-3,2,-3,11,-70,-5,2
1,17,4,-7,5,4,3,14,2
-7,-15,-7,7,2,3,-37,-13,2
16,36,9,-4,6,15,57,8,2
-6,6,11,17,9,-8,8,2,2
-19,-29,-13,-38,-20,-20,-18,-28,2
-3,-11,-13,2,-9,7,119,6,2
-4,-2,0,-3,0,-3,-67,-8,2
6,6,4,-1,3,-3,-34,-5,2
2,9,4,-1,3,-6,-94,-2,2
11,14,9,21,10,19,84,19,2
-29,-22,-14,11,-30,-30,-31,-28,2
5,-3,-6,-19,-5,4,24,4,2
9,18,11,12,15,14,60,-1,2
-5,-27,-6,-10,1,0,-22,-7,2
20,7,9,3,19,-16,-27,9,2
-10,-15,-13,-9,-19,12,64,-5,2
0,-4,-3,11,-3,8,21,-8,2
-2,7,2,-16,1,-2,-18,-14,2
15,14,11,6,16,10,-26,13,2
-2,-12,-6,5,-3,10,57,17,2
-6,-2,0,-8,1,-23,29,-12,2
8,12,3,3,-1,14,94,10,2
-3,-8,-1,26,1,-2,41,7,2
3,5,-1,-7,-1,-5,126,4,2
5,-2,0,5,3,11,38,10,2
-8,-1,-4,2,-6,-14,-39,-13,2
-4,-3,4,-11,3,-1,-59,-2,2
-7,-14,-5,-3,3,2,-28,-16,2
-9,-1,-1,-14,-6,-12,75,-27,2
7,-2,1,-3,-6,-17,-54,-4,2
-20,-13,-7,-12,-10,12,25,-3,2
-2,38,9,7,2,-9,12,3,2
11,-5,-6,10,3,3,93,-2,2
-12,-59,-13,-6,-9,0,26,12,2
8,-5,-6,12,10,7,65,4,2
13,11,7,1,4,-1,-58,-1,2
5,42,6,3,2,5,-54,5,2
3,12,12,-12,5,-1,83,-4,2
-2,-8,-7,20,-11,14,108,17,2
2,-11,-2,-6,5,-8,-41,-9,2
-3,-3,-5,13,-8,13,67,5,2
4,17,0,11,6,4,-113,23,2
-5,1,4,-6,-2,-20,68,-3,2
-5,-7,-4,-13,-3,12,22,-11,2
6,-12,3,18,3,7,86,19,2
4,21,1,20,-1,8,43,13,2
-3,-2,-6,-2,-7,-4,-28,1,2
6,15,-4,-5,-1,-2,23,25,2
-21,-32,-6,-18,0,-16,-66,-41,2
-5,0,0,12,3,-3,73,7,2
5,9,2,-6,-4,7,-65,-8,2
-2,-10,-5,-1,-6,-7,-41,10,2
2,3,5,-7,1,8,-64,8,2
10,27,3,-13,5,-18,-120,-12,2
-20,-18,0,-12,-8,5,50,-3,2
6,-15,-1,1,8,12,60,-3,2
6,-21,-3,-5,5,3,26,0,2
-5,-22,0,9,-8,16,-31,0,2
21,52,-4,6,2,10,-27,11,2
-7,1,4,-4,5,-10,-55,-2,2
3,18,2,5,6,9,-2,4,2
-7,-18,-6,0,-4,-11,101,0,2
-2,-1,0,-11,-9,0,-16,-6,2
-7,-14,-1,17,3,3,-18,-3,2
-9,2,-1,7,-5,-11,4,-3,2
-1,13,0,-31,-3,-8,43,-16,2
-27,-34,-10,23,-7,-5,20,-19,2
6,11,-5,1,-11,17,117,4,2
-13,-20,-7,-2,-10,-32,-96,2,2
-2,9,-5,2,-7,-5,69,-11,2
8,19,10,-9,13,0,-72,5,2
-4,-19,-8,6,-6,-9,77,2,2
13,36,14,12,2,20,28,15,2
-12,-55,-20,-7,-7,7,-10,1,2
18,11,3,-4,8,-5,-50,7,2
-7,-12,5,-13,3,-3,-113,-2,2
3,-21,-6,5,-1,16,-11,16,2
4,66,9,12,-4,-20,-28,-3,2
-2,-25,-8,-2,0,0,-18,-1,2
-13,-4,-5,-1,-3,-1,-35,-4,2
4,16,-5,-1,1,-11,53,-4,2
0,-22,1,7,7,12,-28,-4,2
-1,2,1,-15,-3,-3,-52,3,2
-5,11,1,-16,-2,-28,-82,-26,2
-4,-9,-1,-24,-5,4,-57,-19,2
-2,12,2,3,0,3,-54,-5,2
-4,-14,-4,-3,-5,-11,26,-1,2
2,10,4,-12,-1,-11,-74,-7,2
5,-12,-1,-4,7,13,92,-8,2
-16,-17,-7,6,-11,-10,5,9,2
8,5,5,14,11,13,57,8,2
-5,-10,2,-12,-5,-1,15,-7,2
9,20,3,0,3,-9,-67,3,2
5,2,-1,1,1,5,68,-2,2
-5,22,7,-6,1,-12,-60,-11,2
-2,-31,-6,-3,-5,-16,-35,-2,2
-2,1,0,-15,-2,6,-73,2,2
7,-16,-5,4,2,3,18,9,2
-8,-2,-5,5,-9,-4,55,-7,2
13,23,11,11,11,9,-21,8,2
-17,-7,-9,-32,-19,-25,-80,-39,2
-7,-2,-1,-5,-2,-1,4,11,2
-3,-28,-1,5,0,0,54,4,2
-9,6,-8,13,-12,-11,83,0,2
15,17,11,14,14,14,30,19,2
1,5,-2,10,0,-7,-24,3,2
-5,-4,-2,-4,-1,6,-21,0,2
6,-10,0,4,5,0,-4,8,2
6,-3,-5,8,-10,9,19,21,2
5,27,1,0,0,7,-7,-10,2
0,-9,7,7,15,6,-19,7,2
6,19,8,2,4,18,96,0,2
-3,-56,-3,2,2,-19,8,0,2
-4,4,-1,-8,-16,0,83,-11,2
-12,6,-8,-30,-17,-30,-97,-6,2
6,-7,-8,6,-4,24,127,5,2
-8,5,-2,18,4,0,43,10,2
0,-12,7,-19,11,-6,-82,-4,2
6,23,-6,-4,-2,4,66,0,2
-7,-26,-5,-24,5,-17,-105,-15,2
-6,4,-2,-14,-11,6,-27,-5,2
7,3,4,8,9,-1,-84,20,2
-18,-8,-5,-9,-12,-15,-2,-19,2
-8,10,2,1,-5,-12,-112,-9,2
2,1,-3,-10,-5,-1,45,-4,2
-7,-38,-11,0,-3,1,39,-5,2
2,-14,-3,-7,1,4,-8,4,2
-3,1,-1,7,-11,-8,97,9,2
0,12,4,0,8,-3,-64,-9,2
0,4,0,-16,-2,0,35,-1,2
8,-1,10,2,11,18,4,0,2
-10,17,-14,-22,-25,-37,-97,-32,2
-7,-5,-3,20,-1,4,107,18,2
-15,-6,-9,-9,-12,-11,-31,-16,2
5,-8,-3,1,-2,-1,-69,2,2
1,22,10,17,16,10,104,5,2
4,6,-2,-9,1,-16,-12,-2,2
-5,-20,-7,3,-9,14,57,7,2
-2,27,3,4,-1,2,54,5,2
15,-40,0,19,19,10,3,13,2
-17,-6,-11,8,-21,-16,-18,-4,2
9,18,7,-2,11,5,-32,6,2
1,-2,5,-1,1,-2,22,-8,2
2,15,-3,-22,-4,-18,-50,-4,2
6,22,5,8,11,24,127,9,2
-1,5,1,-1,2,-14,7,-8,2
-3,-14,-3,23,-7,9,127,7,2
-5,-1,1,9,-2,5,29,12,2
-12,-32,-6,2,0,-11,-31,-8,2
-3,9,2,-6,-2,-21,-23,-12,2
9,-3,-1,-14,3,5,-62,-6,2
-7,-9,-3,4,-10,4,-61,3,2
5,25,6,19,1,5,52,7,2
-7,18,10,20,-1,-6,36,-3,2
-8,-71,-22,10,-11,-6,29,-3,2
26,7,-8,-13,3,12,71,-2,2
-3,2,4,14,5,14,10,21,2
-4,1,-4,-30,-9,-38,-128,-15,2
-1,22,10,-6,0,-6,-13,-1,2
4,4,0,7,-4,19,105,8,2
7,-1,2,-17,3,-12,-110,-13,2
6,-9,-2,-6,10,14,67,10,2
1,15,3,-1,0,9,32,7,2
-8,-8,-1,-6,1,-14,-76,-17,2
8,8,7,-5,11,11,54,0,2
5,6,6,20,9,12,65,6,2
-21,-14,-13,-26,-21,-21,-115,-14,2
14,7,4,17,7,18,-32,29,2
-11,-20,-4,-15,0,1,-35,26,2
28,33,24,27,30,4,13,-26,2
-13,-12,-29,35,-24,60,127,30,2
1,-31,-1,-2,2,34,94,28,2
-3,6,-6,6,-1,-19,-41,-10,2
-2,4,-6,-24,-12,-3,-73,-1,2
1,-15,8,9,19,-15,44,-9,2
-10,9,2,4,-7,0,79,-11,2
16,11,6,19,6,2,-23,24,2
-12,-15,5,-43,-5,1,-41,-41,2
-44,-9,-25,-9,-32,-25,94,-57,2
-6,0,-1,-5,-6,2,-128,10,2
-3,-40,1,-11,10,-10,-41,-19,2
0,3,-11,-2,-2,-3,-55,-6,2
36,30,26,-9,31,9,-82,9,2
-18,-10,-6,-2,-8,-7,57,-23,2
-13,0,-8,1,-27,-15,2,-9,2
36,15,21,20,35,24,-58,42,2
-11,-17,-12,-16,-18,16,-60,24,2
7,10,2,10,20,-2,-17,-14,2
-3,7,2,1,-4,-32,-15,9,2
-15,-22,-21,10,-26,66,97,19,2
30,41,26,2,31,-33,-107,12,2
-15,-14,-7,-2,-8,-1,-33,9,2
0,22,-11,-18,1,-2,60,-5,2
13,-15,-3,-7,-3,-47,-20,-13,2
5,20,7,-2,2,39,60,-1,2
-13,-24,-7,-22,-3,-28,-69,-18,2
-10,-2,-3,-2,-8,16,-33,-18,2
-4,3,-3,5,-4,-4,70,18,2
10,8,6,0,4,-28,6,4,2
-1,20,4,-19,-7,13,33,-37,2
1,-14,-5,8,2,15,88,9,2
-5,14,-3,9,-13,10,127,10,2
1,-27,4,-2,9,-14,-53,1,2
4,2,-4,4,1,-6,125,3,2
4,-5,-3,-8,-7,3,-15,5,2
-23,1,-1,-22,-1,-24,-128,-49,2
-4,-6,-5,20,-9,1,127,-2,2
12,7,7,0,9,-2,-67,18,2
-1,53,20,-1,-3,11,-48,-15,2
1,-59,-27,-11,-12,-23,-69,-2,2
-1,3,3,-7,4,5,-74,17,2
-7,7,-19,2,-16,-2,25,13,2
16,5,6,-3,13,15,67,-18,2
9,24,14,35,12,-8,43,25,2
-8,-19,-6,-21,-12,-39,-114,12,2
-6,-17,-1,13,-8,-2,-18,6,2
20,13,6,-9,5,21,33,17,2
-19,-8,-7,16,-12,-20,-18,21,2
2,-8,-10,-6,-8,16,75,2,2
17,14,14,5,17,4,-3,2,2
-15,-22,-7,-5,-9,-37,-54,5,2
14,6,8,9,22,29,127,-7,2
-36,-14,-16,4,-37,-35,-7,-32,2
7,4,2,-2,4,12,-45,12,2
4,-6,-2,-3,6,14,-24,-5,2
-6,1,-2,-4,-3,5,-17,-6,2
20,29,15,-19,22,4,-5,-14,2
-3,31,9,4,-2,4,127,-14,2
7,-30,-4,-6,-2,0,-22,9,2
-5,-11,-10,-19,-14,-24,-95,25,2
-5,-9,-10,12,-9,-12,58,10,2
-6,-2,3,-8,-1,12,-105,-4,2
4,19,11,-11,6,-25,-92,-5,2
-5,-11,-9,-17,-10,37,95,-8,2
-4,1,-1,7,6,-24,-62,-10,2
4,-1,0,1,4,1,97,4,2
1,47,1,19,0,5,101,-16,2
-8,-70,1,-5,0,-5,-69,-2,2
30,27,0,14,12,29,92,6,2
-31,-18,-6,-11,-15,-77,-76,-43,2
-5,-18,-15,-12,-16,26,10,-4,2
-17,18,2,8,-6,-9,127,-7,2
-9,1,2,-28,2,-27,-61,-5,2
14,3,3,-6,2,13,-6,2,2
0,-1,2,3,3,-11,-52,-7,2
-7,0,-13,-1,-10,0,51,7,2
17,35,16,-8,17,17,-47,-6,2
9,-8,-3,9,-2,0,-30,16,2
-34,-37,-16,-6,-20,-3,67,-9,2
13,4,11,2,18,19,-93,3,2
19,47,7,6,4,16,47,20,2
-5,-37,-5,10,1,8,94,11,2
21,-5,3,25,5,15,92,30,2
-4,13,1,5,2,-11,12,12,2
-16,-15,2,-12,0,6,58,-45,2
-20,4,-10,-3,-19,-9,-103,3,2
11,-6,-2,-4,8,5,-16,11,2
-12,-6,-4,11,-2,7,56,-12,2
18,19,18,13,19,3,54,-5,2
-15,-34,-21,11,-11,-9,112,8,2
-15,-26,-8,-3,-1,-31,-82,-21,2
1,8,-6,-6,-15,21,-6,-4,2
1,-8,3,16,5,12,-61,7,2
12,19,12,-8,8,2,-88,-10,2
1,13,0,-25,4,-1,18,-39,2
-11,14,-5,2,-12,-27,-69,-20,2
4,1,-1,-5,-1,10,-99,20,2
-3,-13,-4,-13,-3,11,69,-3,2
-9,-15,0,22,4,5,102,6,2
18,40,18,-14,10,-7,-32,-22,2
-30,-32,-28,-13,-22,-6,24,-38,2
13,22,6,10,6,4,22,8,2
3,3,3,2,3,8,34,3,2
2,-4,2,3,5,-13,-45,12,2
5,-9,4,3,3,14,56,20,2
0,10,1,-13,-3,-13,-91,-9,2
-6,-15,-3,0,2,-4,-96,3,2
0,-1,-5,-9,-13,6,59,11,2
15,7,5,9,12,1,-45,21,2
-2,16,9,2,11,2,-78,-6,2
-14,-23,-17,-12,-19,1,16,4,2
9,-2,3,-6,9,-6,-105,0,2
-1,6,-4,-3,-16,-3,-16,5,2
3,5,0,-1,4,-18,-10,1,2
-1,5,5,5,-3,0,22,-1,2
9,7,1,1,4,14,78,20,2
-13,-25,-9,6,-5,-1,40,3,2
5,21,6,-7,2,3,67,3,2
-2,-11,-4,13,-4,10,75,-10,2
3,-11,-4,-1,-7,-1,-29,15,2
-7,-4,-2,-7,-1,-10,-10,-7,2
2,5,-2,2,-4,7,-68,2,2
5,12,3,-22,1,-1,-17,7,2
8,9,7,13,12,0,-115,-1,2
-11,-11,-7,22,-10,8,126,22,2
1,-7,-4,-9,-1,2,57,-3,2
25,34,18,1,14,15,-64,12,2
1,-33,-4,17,10,14,104,15,2
-1,-4,-4,-12,-5,-1,-128,7,2
8,18,-3,6,-7,-23,-43,-14,2
-6,-13,-7,13,-1,-5,63,6,2
2,-3,-2,-9,-3,6,55,-8,2
10,21,3,14,6,10,-13,19,2
-4,9,8,4,7,13,67,-22,2
-4,-14,-8,-4,-11,-26,-128,14,2
-5,20,2,-9,-1,-2,53,-18,2
-9,-25,-8,3,-10,10,90,-13,2
18,13,10,5,11,5,18,12,2
10,9,2,5,7,16,58,-1,2
-7,-6,0,-6,5,-9,-1,-2,2
-2,-7,-9,-8,-21,-10,43,-7,2
-5,-19,-6,-8,-2,-14,-122,3,2
-19,8,-4,1,-3,-14,127,-17,2
8,6,0,2,-3,-7,0,5,2
13,-22,6,-14,24,7,-37,-3,2
-13,-20,-18,8,-19,10,28,12,2
0,14,11,4,-1,-6,-62,-4,2
-2,-7,-12,4,7,1,23,-17,2
-19,10,-5,3,-14,-14,-1,-8,2
5,-9,2,0,4,12,54,-5,2
-1,15,-1,-10,-8,-12,-32,-8,2
-6,-18,8,3,7,1,94,10,2
8,-4,-1,24,-13,3,96,10,2
8,52,8,22,1,8,78,17,2
-19,-95,-11,-13,3,8,-39,8,2
10,66,3,2,-3,-20,-20,-11,2
18,-14,5,-6,29,1,60,-4,2
-15,-3,-8,8,-11,7,6,-3,2
18,36,12,7,10,4,17,7,2
-18,-14,-8,-6,-20,-28,-77,-5,2
-18,-15,-6,-21,-10,-21,-128,-22,2
7,-4,1,-5,-1,-2,82,16,2
-11,3,-7,-7,-8,-5,41,-21,2
21,2,19,12,29,6,-96,32,2
-6,22,-4,12,-12,-12,3,-11,2
-15,-28,-6,-12,-13,20,-73,-10,2
-7,6,-1,-6,-6,-13,-91,-3,2
12,-26,-14,1,-9,12,52,16,2
11,16,7,-1,14,-1,11,3,2
-1,-25,5,8,16,8,80,1,2
8,14,5,5,9,-13,-70,11,2
-29,-6,-12,-8,-30,28,73,-20,2
11,7,3,5,6,12,-94,8,2
-5,-11,-8,11,-2,-6,52,-5,2
9,18,4,12,4,-3,25,14,2
-16,-9,-3,-4,-13,-22,-29,-15,2
-6,-7,-4,3,-3,12,93,8,2
20,18,13,-7,15,3,-59,-11,2
-16,-16,-10,6,-10,3,59,0,2
-1,2,-1,-6,-2,-19,-35,-9,2
6,-1,1,-10,-7,18,72,8,2
-3,4,5,9,9,-7,17,14,2
31,18,4,-19,16,3,-38,-19,2
-15,7,-9,-12,-13,9,-53,6,2
-10,-34,-6,-1,-5,-21,34,4,2
-6,-6,-4,-10,-2,-6,37,0,2
20,32,10,-9,4,7,-27,-6,2
-2,-26,-3,8,4,14,95,8,2
-11,-13,2,7,4,-17,-85,-32,2
0,-22,-7,-2,-7,4,81,16,2
-11,-8,-5,12,-5,5,51,9,2
11,25,9,15,9,-1,46,-6,2
6,17,10,-11,7,-1,-54,6,2
-23,-25,-18,2,-19,9,66,-6,2
-3,-1,-6,6,-11,-6,-34,16,2
2,-3,1,-27,4,-26,-60,-9,2
6,18,6,5,1,27,78,20,2
2,-7,-6,1,7,-16,-114,-1,2
-11,-16,-9,1,-9,-11,90,-3,2
5,4,4,-17,8,18,-49,8,2
-1,1,-3,3,-8,10,81,17,2
2,12,10,-14,-2,-7,-80,-16,2
-21,-32,-12,-16,-4,-10,-4,-29,2
16,29,6,11,-1,4,62,19,2
-4,-23,-6,4,1,-5,-23,4,2
-5,10,8,-21,-8,-27,-124,-8,2
16,9,0,-14,11,-5,-108,-28,2
-11,10,-3,-18,-13,14,112,-31,2
0,-31,-9,0,3,9,-59,8,2
8,7,2,8,6,4,54,1,2
0,2,3,13,3,12,36,6,2
5,-8,2,-4,8,-8,-48,-2,2
9,39,9,-6,7,5,71,-7,2
-6,-13,-4,-1,-5,-2,113,0,2
3,8,2,6,-4,24,126,17,2
-15,-20,-9,12,-10,-18,52,-12,2
-6,14,5,5,3,5,-4,-7,2
17,5,1,-10,16,-7,-119,13,2
-14,3,-3,3,-8,23,55,1,2
4,-8,1,36,-6,16,60,15,2
-2,-20,-13,4,-1,-3,-76,2,2
-2,-15,-2,-1,3,-6,-62,-9,2
1,20,3,2,-2,2,39,14,2
6,8,6,-2,5,-1,-77,-2,2
12,24,9,1,2,2,36,18,2
-5,4,-1,-3,-4,6,-21,1,2
18,10,4,15,6,-9,-73,11,2
-19,13,-6,-16,-13,-5,4,-22,2
-3,-16,-9,6,-4,-23,-111,12,2
-19,-16,1,-24,-7,-1,-30,-33,2
-7,25,-8,-3,-1,6,68,5,2
-22,-73,-28,16,-15,-22,-23,-2,2
0,16,-1,5,-2,-11,-15,-5,2
1,1,-5,-14,-10,5,98,17,2
4,15,14,-4,11,3,-39,-13,2
24,36,21,3,22,10,27,22,2
-3,-17,-2,-8,5,-5,48,-23,2
-3,6,-6,14,-9,0,-8,13,2
-10,-14,-3,-26,-9,-15,-128,-16,2
11,-5,1,-7,1,11,50,25,2
4,-4,4,-1,-1,-2,25,4,2
-11,19,2,9,4,-8,55,-18,2
-7,-29,-5,3,-2,7,70,-6,2
-18,-16,-10,-25,-14,-21,-50,-20,2
5,22,6,-10,-8,21,114,19,2
8,-5,-5,10,1,9,4,2,2
9,28,10,22,3,9,91,21,2
-23,-47,-14,10,-7,-24,6,-16,2
3,40,0,0,-7,-1,-66,-18,2
-5,10,-1,-8,-2,-15,-79,-19,2
2,-17,1,1,3,-1,-53,15,2
33,53,14,1,15,19,-71,-3,2
-8,-10,1,-11,-3,-7,51,-3,2
1,-19,-5,27,2,9,-9,16,2
-10,-2,-5,-13,-6,-17,0,-21,2
16,18,6,1,7,13,-12,41,2
-25,-37,-9,-19,-6,-11,-83,-30,2
6,1,-12,-14,-12,7,50,10,2
-5,-21,1,-2,4,-18,-68,-1,2
17,44,5,-9,2,50,58,1,2
-6,-18,-1,18,3,-13,54,1,2
22,31,15,11,5,5,127,26,2
-29,-16,-22,4,-29,-26,-124,-15,2
-3,-38,3,-9,6,7,14,13,2
-5,-40,5,-2,25,1,36,7,2
2,42,-4,7,-20,6,51,31,2
14,-26,-4,-6,9,11,44,13,2
6,11,-4,5,-10,-9,-13,-14,2
6,27,2,-10,2,3,-13,-11,2
-10,-28,2,2,11,-12,-34,-15,2
-9,18,11,-1,-1,13,-2,4,2
8,19,1,4,6,10,-51,17,2
-23,-36,-19,6,-19,-12,26,4,2
14,12,8,-5,9,-4,-77,-5,2
28,6,2,0,1,12,-13,15,2
-35,-26,-8,6,-2,-12,-43,-19,2
12,23,4,-2,1,2,-13,0,2
-3,-3,-2,-10,0,-8,-47,-5,2
0,-6,4,6,6,3,127,10,2
4,4,-1,-5,-5,-20,-42,-3,2
10,13,1,-12,-1,-1,-101,-5,2
8,15,11,9,17,5,37,-16,2
-16,-47,-22,-9,-20,-15,-82,-17,2
-14,20,-1,5,-4,-1,101,-20,2
-7,5,-5,27,-10,-3,98,2,2
-12,-29,-1,-20,-4,-10,-37,-15,2
22,-3,11,6,14,28,89,8,2
-3,1,-1,15,-7,-24,-13,2,2
1,6,6,-8,12,12,-63,4,2
5,-3,-2,-16,-2,-7,-8,5,2
-7,21,1,2,-4,9,126,-14,2
-10,-27,-9,3,-9,-4,-15,1,2
16,3,7,-14,4,11,63,-13,2
-11,8,-10,24,-12,-8,37,7,2
3,-11,1,-11,5,-8,-34,-1,2
5,12,6,-2,8,6,25,-1,2
3,-4,-1,3,-4,-12,-84,4,2
7,11,3,-6,5,25,101,9,2
-13,0,-8,-5,-12,-23,-103,-6,2
2,-5,3,3,7,4,28,0,2
9,-7,1,3,3,1,-95,37,2
-27,-21,-18,-8,-12,-14,-24,-44,2
-2,-21,-6,1,0,-14,-6,7,2
5,2,1,-19,0,4,-17,-7,2
-5,11,2,0,0,-8,9,5,2
-4,-8,1,-11,0,-1,-38,-18,2
22,32,7,11,1,-4,49,32,2
-10,-26,-4,16,-1,16,42,13,2
0,2,-3,-12,-6,-12,-29,-14,2
4,-5,-2,9,-4,-5,-8,10,2
-7,0,-3,-6,-7,-7,-53,-8,2
2,15,4,-9,4,-9,-55,-11,2
-4,-17,-2,-2,0,8,41,-15,2
8,29,12,-1,2,9,-15,7,2
13,-17,-2,1,6,2,-48,10,2
-40,-20,-12,-6,-18,-39,-17,-21,2
-18,-7,-6,-9,-12,-7,4,-33,2
11,-1,4,-11,6,2,-64,2,2
-3,23,1,6,-8,-2,82,19,2
2,-33,-3,-10,2,-6,-97,-4,2
1,22,4,-16,2,-9,61,-50,2
-13,-26,-8,-4,-7,-4,76,23,2
-17,-7,-6,7,-7,2,0,5,2
16,14,5,-4,7,6,-23,16,2
-12,-8,-8,-4,-10,-5,-17,0,2
22,26,8,2,6,-1,-13,14,2
-15,-30,-4,-9,11,-2,-70,-27,2
12,19,7,2,-2,11,102,15,2
6,-7,-7,15,0,-8,-114,22,2
-2,-7,-2,1,0,6,13,-4,2
4,52,5,0,-3,2,42,1,2
6,-53,5,-8,7,9,-28,4,2
16,17,2,-5,7,0,53,19,2
-35,-50,-20,-11,-23,-23,-93,-17,2
7,11,-4,-22,-7,0,-52,-23,2
12,17,3,3,3,11,101,12,2
2,4,4,10,4,17,108,17,2
-3,-10,-3,12,-4,-18,-55,13,2
18,17,16,-3,16,17,101,12,2
1,3,-16,2,-8,11,-82,14,2
-7,-4,2,12,5,4,22,12,2
12,24,11,1,12,2,-42,-7,2
-14,-31,-5,-18,-2,-13,-22,-32,2
4,23,-1,5,2,-8,-27,-2,2
-2,-1,-1,-20,-13,-11,45,-13,2
-6,-2,-7,10,-4,10,54,0,2
2,-7,-2,-9,-3,3,-43,14,2
-3,-1,2,-1,0,-3,61,-19,2
-6,-4,4,-2,3,-1,-87,9,2
14,11,0,1,7,8,58,-2,2
2,-4,1,2,4,5,-57,10,2
-3,11,0,-15,-2,-7,3,-32,2
-1,12,4,16,5,11,41,6,2
3,0,2,-19,-1,-13,-1,-17,2
3,-4,-2,7,5,3,-35,3,2
-5,-3,-4,-14,-14,-3,-2,16,2
9,21,12,4,8,-16,12,-26,2
-26,-32,-17,-13,-9,-14,-121,-49,2
-21,-11,-15,10,-24,13,104,3,2
16,9,3,12,10,15,40,20,2
-9,2,-5,-2,-6,-17,-117,-6,2
19,-2,10,17,18,14,70,77,2
25,12,7,-1,3,6,-17,-9,2
6,40,20,53,26,-2,22,32,2
-40,-73,-20,-34,-21,6,-12,-88,2
-1,-9,-7,13,11,10,26,-22,2
-19,-5,-4,0,-7,-31,-18,-5,2
-23,-24,-14,-24,-16,-44,-85,-36,2
16,18,-2,-10,-14,14,68,8,2
36,32,20,9,20,54,66,31,2
-52,-32,-18,16,-22,-42,54,-26,2
11,15,8,-5,12,-36,-99,-2,2
-2,0,-11,-2,-10,45,32,9,2
3,-14,-2,-3,-10,11,68,11,2
23,63,21,6,15,22,15,20,2
-6,-71,-24,-12,-2,-1,-1,-20,2
1,10,-1,11,6,-11,-26,35,2
1,16,4,-6,-7,-15,-41,-17,2
8,-2,-4,1,-3,1,29,23,2
-43,-30,-13,-2,-16,-11,-18,-7,2
15,9,13,-2,18,0,-82,2,2
-9,-5,-9,-20,-15,13,19,-8,2
-8,8,5,-10,9,-27,-81,-15,2
24,21,-2,-9,-17,38,101,-6,2
-12,-28,-1,7,15,23,59,26,2
27,24,17,-2,24,-18,-91,-18,2
-34,-30,-9,-12,-18,23,33,-39,2
-2,-18,-15,6,-7,23,58,4,2
-5,6,-4,5,3,-7,-4,-5,2
1,6,4,-1,4,-3,66,10,2
16,-1,8,2,5,-1,32,-23,2
7,19,6,-6,2,3,-84,2,2
8,4,0,7,-1,4,38,11,2
-17,-18,-8,13,-3,0,43,18,2
22,50,6,0,5,-2,-72,27,2
-19,-27,-7,-14,-17,-5,14,-5,2
26,49,5,7,3,-25,19,8,2
-36,-67,-18,-8,-21,-39,-128,-19,2
-3,-24,-5,-9,14,17,46,0,2
7,19,6,-9,0,0,-34,-6,2
3,17,10,-6,-5,-19,-105,2,2
42,36,14,9,25,64,114,-13,2
-26,-6,-16,17,-17,-33,45,-1,2
12,4,8,11,22,-6,38,-12,2
-12,-8,-10,-14,-23,0,105,-2,2
14,37,18,16,16,6,-66,6,2
17,-25,-3,-17,-1,-27,-128,28,2
-19,-51,-6,10,-12,15,119,21,2
7,9,1,15,14,23,53,1,2
-19,-4,-9,-14,-20,-40,-86,-3,2
19,22,8,3,13,22,19,-19,2
-3,18,3,13,-1,-5,48,22,2
3,-16,-3,1,-12,0,-20,-2,2
-10,-5,-7,3,-11,-11,-17,6,2
0,-16,-2,-6,-1,0,-9,-17,2
6,43,9,-7,4,-3,-38,-17,2
-15,-54,-12,-1,-1,-6,19,-4,2
3,6,-2,1,-7,3,-22,10,2
-3,14,3,-4,7,6,-2,4,2
-9,-26,-1,3,-8,10,55,-3,2
8,20,0,-14,6,-10,-71,5,2
-19,-16,-13,-14,-16,-12,48,-10,2
13,-2,9,4,15,25,127,-8,2
-10,5,-4,0,1,-27,-107,-8,2
-1,-2,-3,-12,-10,-2,3,-5,2
2,6,4,-1,3,-8,-19,12,2
19,7,3,13,5,29,100,8,2
-1,-23,3,11,0,-24,-84,10,2
5,24,-3,-12,-4,-10,-29,9,2
-13,-16,-8,-1,-7,0,77,-40,2
-7,-3,-8,-19,-13,3,-30,2,2
7,9,7,3,10,-8,-60,-1,2
3,0,-1,13,-3,11,17,3,2
-25,-18,-7,1,-5,-19,-3,-3,2
1,-7,3,6,-3,-4,-56,17,2
7,13,3,-15,10,19,5,-4,2
-2,-7,-5,6,-8,-4,2,8,2
15,18,8,-13,9,10,-15,5,2
-19,-20,-10,-2,-12,-30,3,6,2
11,64,9,-5,-9,4,5,8,2
-17,-77,-7,7,15,2,-38,-3,2
1,-32,-11,-10,-6,1,-42,11,2
-2,-22,-5,19,1,3,43,34,2
-15,-1,-11,-8,-8,-32,-65,14,2
0,35,6,-13,-5,-9,74,-10,2
-2,12,2,8,-4,17,127,-6,2
13,-4,-1,7,4,-9,-87,-2,2
6,3,-4,-19,-5,-6,-11,-6,2
-3,-1,3,9,4,-2,-48,2,2
5,-3,2,6,8,4,35,20,2
0,21,0,2,-18,3,57,5,2
-1,-10,-7,0,-5,14,19,-2,2
-7,-3,-1,6,2,-10,-3,7,2
5,12,5,9,0,13,90,-9,2
-9,-8,-9,-12,-15,-60,-110,-13,2
2,3,8,0,11,12,108,-6,2
2,-12,-13,-8,-16,10,113,7,2
-6,8,5,5,8,-10,-44,-2,2
-2,6,7,-6,11,10,-40,-11,2
2,-16,-4,-2,-8,8,57,-22,2
-7,49,6,-4,-4,-10,-24,-28,2
-6,-38,-11,-8,-2,-4,-95,7,2
4,-16,-3,-9,5,18,-27,-1,2
4,22,0,5,-2,6,94,7,2
-2,-21,3,20,4,0,24,9,2
11,39,2,-9,-8,0,-9,7,2
6,9,6,-3,5,-22,-32,0,2
-1,0,-8,-2,3,19,-81,-3,2
-10,-21,-2,9,-2,20,83,-2,2
2,26,3,17,7,5,-55,-4,2
-8,-52,-4,-13,5,-14,-52,-16,2
2,1,1,3,2,-8,39,-16,2
-3,-6,-3,0,1,-26,-80,-28,2
-21,-14,-4,-8,-13,19,61,5,2
7,27,8,-7,13,18,27,-10,2
-2,-4,0,13,0,-7,-40,7,2
3,-5,0,-10,0,5,-66,-4,2
13,13,6,-8,4,-7,23,-9,2
-10,6,-1,-7,-2,8,113,-16,2
-7,-40,-7,-16,-4,-15,-67,5,2
16,48,8,-5,1,12,61,7,2
-11,-13,-8,-5,-4,-22,10,3,2
-4,-15,-4,6,-7,19,41,17,2
13,7,12,1,24,-5,10,-16,2
-35,-21,-14,-25,-28,-16,-47,-19,2
6,24,0,8,0,-9,17,8,2
1,-5,-6,8,2,12,100,8,2
10,13,3,13,0,14,78,10,2
14,25,12,-2,13,-13,21,33,2
-20,-42,-16,17,-13,0,60,-6,2
0,-4,-6,2,-5,2,-128,-5,2
-9,-5,-4,-25,-13,-17,-54,2,2
13,5,2,-3,5,10,35,8,2
1,-4,1,-5,4,-1,-19,-1,2
3,40,14,14,-6,-7,12,3,2
-14,-79,-19,12,11,0,-67,0,2
14,68,2,14,-13,-3,76,17,2
5,-29,3,5,4,16,65,-3,2
-2,-1,-2,12,1,-25,-9,10,2
-13,12,-9,-2,-29,10,56,11,2
-15,-42,-3,4,9,-2,-75,-15,2
7,6,3,-4,4,12,-15,-9,2
15,26,5,-2,7,5,-79,10,2
-2,3,12,-4,13,-21,-90,-19,2
-7,-31,-10,-1,-11,32,-24,0,2
-9,-27,-12,8,-10,-8,-13,10,2
-8,-8,-6,8,-2,-25,-53,11,2
25,42,12,-15,9,7,-63,2,2
-9,-8,1,-2,-5,-18,43,-5,2
4,4,-1,-16,5,-7,-58,-7,2
-6,15,2,-9,-5,6,32,-24,2
12,-42,-4,-3,11,27,80,1,2
2,5,9,5,13,3,-25,6,2
-14,-16,-2,-8,-9,-4,28,-24,2
-9,19,-3,-9,-9,-2,-38,-19,2
15,41,8,11,2,1,44,-14,2
-6,-12,-4,-10,-5,-11,-128,4,2
9,27,10,3,4,17,28,11,2
21,-40,-1,-12,4,22,52,2,2
-12,2,-9,9,-11,13,24,11,2
13,0,12,-3,26,13,15,-5,2
1,15,-2,1,-12,-35,-125,22,2
-2,26,6,4,2,2,79,-5,2
5,-42,-8,-11,-4,8,34,20,2
8,6,-1,7,14,-3,29,4,2
-4,8,-2,7,-7,-12,36,10,2
-13,-16,-9,7,-13,8,-39,6,2
-17,1,-4,4,-16,-24,35,-2,2
0,-3,3,3,3,8,26,-3,2
25,14,6,-2,11,-2,4,-1,2
-15,-42,-19,5,-9,-9,7,-12,2
2,29,8,19,9,7,79,-1,2
-11,-6,1,-11,-16,-20,-115,-4,2
6,6,-5,5,-4,-2,-9,4,2
-11,-30,-1,-4,5,3,4,-11,2
-1,24,-2,-15,-2,1,-2,-10,2
3,9,1,8,3,4,56,-4,2
-19,-15,-5,-21,1,3,-99,-13,2
6,9,0,19,-9,-2,42,14,2
-3,1,2,2,-1,-6,3,7,2
-9,-13,-13,-4,-6,-6,10,-3,2
-4,-12,0,13,0,5,85,11,2
6,1,4,-18,10,-12,-52,-9,2
-10,-2,-6,0,-9,10,18,-2,2
-8,-10,-11,-5,-17,-11,-14,-22,2
4,18,1,-16,1,-8,-83,-10,2
-12,-10,-5,-6,-1,-6,65,6,2
3,0,1,5,0,-5,-47,0,2
8,2,-1,2,4,-1,1,1,2
1,-1,7,3,7,1,38,-10,2
-13,27,-6,-6,-7,9,-40,4,2
5,-17,-6,-9,-1,-7,-60,-8,2
2,-2,4,0,8,-4,-28,16,2
6,16,3,-22,-3,-3,-56,-14,2
14,-6,0,13,1,1,91,14,2
-13,-4,0,8,-3,15,66,-18,2
6,3,-1,0,3,-1,-42,-13,2
6,-1,5,6,5,14,-15,12,2
-6,20,-1,-21,-7,-10,-106,-6,2
8,3,7,-2,12,-13,-94,-7,2
17,-1,3,12,1,35,127,14,2
-21,-11,-10,11,-15,-8,58,-13,2
2,-6,4,28,8,31,121,15,2
-1,-3,-4,15,-7,-1,49,13,2
-14,-3,-6,-1,-6,-10,-20,-8,2
8,-8,-1,-4,4,17,-23,13,2
14,19,10,0,10,3,-46,-5,2
-14,-11,-7,-1,-3,-4,-27,-7,2
10,8,7,-6,6,-1,-82,14,2
-3,-22,-7,5,-4,-11,20,3,2
-6,15,0,-1,-7,-6,-63,7,2
-4,-6,6,-5,5,-3,-36,-16,2
18,-1,0,6,2,12,76,9,2
-4,-4,-1,17,3,-10,-92,22,2
1,3,6,-15,-1,-15,65,-39,2
2,12,0,3,0,14,-37,14,2
4,-4,-1,-3,8,-3,-72,-2,2
-5,2,2,-2,-5,10,93,-11,2
0,-35,-8,0,4,-12,-114,3,2
-1,9,-7,-3,-10,-11,41,0,2
-15,8,3,-11,-1,-12,21,-6,2
17,5,5,-6,13,16,55,7,2
-11,5,-3,-4,-12,-10,-55,-5,2
-5,-19,-6,-3,3,-18,-52,12,2
-1,7,-5,7,-8,18,50,-2,2
5,-14,-3,13,7,0,17,15,2
-2,1,-2,6,3,16,12,-4,2
-6,-10,2,1,-6,0,64,12,2
20,11,8,2,12,13,15,9,2
-10,12,-5,12,-10,7,112,-8,2
-21,-21,-11,-21,-13,-13,-69,-22,2
11,18,7,-1,16,-2,-79,-9,2
-11,-11,-2,-2,-7,2,59,2,2
-5,-6,-6,-17,-10,-18,-105,-10,2
15,-5,-2,11,1,9,65,17,2
3,43,12,2,2,1,-28,0,2
-11,-28,-3,5,-3,-16,-33,-4,2
-3,-22,-11,-9,5,-9,-86,4,2
-7,-4,-4,-2,-8,-23,16,-4,2
-4,-2,-9,-6,-18,17,39,9,2
4,18,6,-3,-3,-6,-77,-10,2
15,16,2,-2,-7,3,-30,45,2
-4,-4,10,11,28,-3,23,11,2
-7,16,0,-10,-15,-20,4,-5,2
-6,-28,-16,5,-13,9,35,14,2
8,6,11,-1,9,9,9,3,2
1,-13,-9,6,-5,-2,2,-20,2
18,41,12,-8,13,5,20,11,2
-18,-8,-9,-2,-11,-10,43,0,2
0,3,-1,14,-7,-18,-57,1,2
13,21,11,2,7,35,127,-5,2
-21,-37,-14,7,-14,-28,-61,4,2
3,-6,-5,-23,-9,16,-110,-14,2
-8,-1,-2,-18,7,-4,-66,-40,2
-10,3,5,-12,11,4,-1,28,2
1,-16,1,3,5,12,73,-19,2
9,10,4,-5,0,-4,46,-1,2
7,19,5,22,-15,6,112,14,2
-19,-59,-34,-14,-39,-7,-66,-14,2
10,-7,1,17,16,33,91,16,2
-47,-13,-17,-29,-20,-35,-5,-41,2
0,8,10,-21,20,3,28,-17,2
12,22,7,-1,-14,-20,-2,8,2
-17,-33,-13,-11,-16,-10,-39,-6,2
14,10,-1,5,0,-2,-27,12,2
-4,-32,-4,-9,-1,-1,-12,-12,2
22,45,20,4,20,-3,39,12,2
-14,-2,-10,-1,-19,-3,54,-6,2
26,31,22,14,31,11,15,26,2
-10,16,-4,-14,-15,14,49,-30,2
2,-85,-20,1,5,27,41,21,2
19,48,4,8,10,-9,-69,8,2
-11,-15,-5,-27,0,-22,-55,-38,2
-7,25,6,16,9,-10,105,-13,2
-15,13,-5,10,-24,-6,37,-15,2
10,-10,6,-1,10,11,-29,-1,2
8,-14,-5,10,0,1,-20,10,2
6,13,7,-46,7,-53,-123,8,2
-32,-14,-15,-11,-31,6,-56,-2,2
10,-12,-2,4,-1,14,-58,5,2
8,12,7,31,18,11,-17,25,2
15,12,13,6,21,5,-43,10,2
18,13,10,5,15,2,26,-31,2
0,4,0,7,-2,5,32,33,2
-2,-16,-4,1,-9,3,43,6,2
-14,-9,-17,12,-14,-15,-30,-13,2
-1,10,7,-5,10,3,35,14,2
14,-6,5,4,7,1,56,-14,2
-15,12,0,0,-12,10,62,-4,2
1,-8,-6,-2,-8,-1,63,-3,2
7,15,3,17,5,5,55,7,2
-13,1,-6,-33,-12,-34,-102,-33,2
9,1,13,-6,17,8,31,13,2
8,-20,-4,-3,-3,17,-46,-6,2
12,17,10,20,30,-3,23,9,2
-18,-18,-7,11,-14,12,127,-1,2
-6,-14,-20,-12,-38,-25,-79,-16,2
-14,-12,-8,15,-7,-1,-37,5,2
-11,7,4,-42,6,-22,-106,-76,2
3,2,6,-5,8,-5,-61,16,2
14,5,2,6,1,10,69,45,2
-12,-4,-4,29,-10,-11,-43,16,2
-21,-15,-18,-6,-20,-13,-5,12,2
-12,-9,-4,-5,5,-1,2,-20,2
4,2,-2,5,-2,0,1,8,2
5,4,8,-1,4,17,38,1,2
5,4,10,13,10,-4,-1,9,2
-2,3,-6,-16,-10,-14,-81,-7,2
-13,-31,-13,4,-9,10,76,1,2
6,14,11,15,20,21,-40,6,2
-2,-23,-6,-4,5,-2,-74,2,2
1,4,7,5,7,13,88,14,2
-19,0,-1,-2,-3,-39,-84,-26,2
-3,0,-3,-4,-12,29,119,14,2
18,13,9,1,9,1,-87,12,2
-2,-9,-10,-14,-16,-6,-50,5,2
12,8,6,0,12,8,-6,-5,2
1,9,0,4,4,4,83,12,2
25,21,18,17,23,17,65,35,2
-24,7,3,-8,-28,-45,34,-35,2
-26,-50,-26,1,-11,22,93,-27,2
9,11,-5,-3,-2,-8,-69,-42,2
0,-15,5,-5,-5,13,26,-4,2
23,20,5,15,17,11,-19,7,2
-1,18,15,22,18,10,10,17,2
-8,-7,-1,-11,-4,-11,-70,4,2
7,25,2,-3,-2,-4,-3,-9,2
3,1,-3,-2,-4,6,25,14,2
-14,-12,-4,-12,-9,-3,38,-28,2
-1,-9,-6,-2,2,-2,-16,4,2
-12,-6,-4,1,-2,-6,50,0,2
-12,-21,-6,2,-2,-6,-46,14,2
35,31,17,4,22,17,107,20,2
-15,-22,-10,-1,-20,-22,-49,-15,2
-5,-5,-13,-17,-27,6,95,1,2
11,14,7,-8,22,12,-56,-21,2
-11,-15,-2,-5,-16,-39,-9,-12,2
-3,-10,1,-3,3,4,15,-24,2
-7,-5,-7,0,-7,-9,-73,-11,2
3,25,5,6,1,15,91,0,2
17,24,8,-1,12,4,-95,6,2
-9,-26,-7,-1,0,-2,52,13,2
3,23,1,6,-5,6,77,-4,2
1,-28,-2,-9,9,3,-73,7,2
-8,-8,-6,-23,-22,-17,-50,-1,2
20,26,2,6,-3,14,127,16,2
-7,-6,-2,4,3,0,-71,-9,2
2,43,8,1,12,-14,-59,14,2
-11,-40,-12,2,-24,4,86,-1,2
7,9,1,-15,0,-15,-119,-14,2
-21,-21,-10,1,-13,-12,46,9,2
6,-10,-4,-4,-11,-11,-36,-13,2
-5,9,3,5,14,-5,8,-4,2
2,-2,8,-4,11,6,2,2,2
12,36,6,-7,2,-1,21,10,2
-20,-51,-6,1,-8,-7,-28,4,2
10,12,4,7,11,10,-23,0,2
-11,-4,5,-11,-4,-6,-90,-15,2
13,-3,-17,0,1,-5,-31,0,2
-10,-28,3,-6,8,10,123,-16,2
-13,0,-3,-9,-11,-11,-116,7,2
14,6,4,6,5,14,127,7,2
-6,-1,-1,1,-12,-5,-96,3,2
10,6,0,4,2,3,59,21,2
2,6,1,-3,0,-7,-81,3,2
-2,0,4,12,11,3,58,9,2
-6,-4,2,-20,-5,-33,-27,-19,2
-5,-2,-9,9,-14,15,96,10,2
15,8,10,6,14,7,-33,15,2
-21,12,-1,1,4,-16,-66,-15,2
-14,-27,-11,-9,-31,10,26,0,2
3,-42,-17,0,3,-8,-76,-7,2
-2,27,3,0,1,-12,-29,-8,2
0,-15,-7,-1,-3,1,9,2,2
11,12,16,5,22,14,99,-14,2
-12,5,-1,-6,-15,-1,-43,-15,2
-6,-1,-7,7,-5,-8,-47,3,2
-4,-10,-3,-3,0,-11,-6,-5,2
11,4,1,5,1,13,13,14,2
1,13,9,6,18,3,6,-30,2
7,7,3,-12,8,-2,-4,-11,2
-14,10,-2,6,-10,-6,-1,2,2
-4,-12,-7,5,-4,20,51,8,2
11,-3,0,-13,2,-1,-25,14,2
3,-13,1,21,6,16,116,-17,2
-19,-3,-8,-6,-11,-21,-65,-20,2
-8,8,-5,2,-7,-4,91,-11,2
7,30,12,2,2,10,20,10,2
-2,-7,-2,-2,0,4,21,13,2
9,-32,-12,1,-7,5,102,10,2
-5,-6,2,-2,5,-16,-128,-11,2
-6,-2,-2,0,-3,-5,-47,6,2
2,6,1,-7,-2,2,34,-14,2
7,7,1,-2,-2,10,69,3,2
7,-5,-1,11,2,13,26,20,2
-2,0,5,-2,6,-15,-66,1,2
-1,-5,-3,-20,-7,-12,-38,2,2
7,2,3,-4,0,16,42,-3,2
-8,-4,-2,-6,-3,-24,-87,-6,2
3,-1,-2,2,-6,-3,33,-1,2
2,52,19,11,11,6,-8,1,2
11,-30,-13,-5,0,-5,-80,-21,2
0,3,4,8,4,4,40,19,2
-3,-22,-5,-2,-4,8,127,-9,2
-11,4,-13,21,-13,-10,-31,6,2
1,12,5,-1,2,1,79,2,2
5,-6,-2,-7,2,8,34,8,2
11,13,7,7,7,1,14,-1,2
0,5,7,1,14,12,-10,4,2
5,6,2,10,1,-12,-47,13,2
-2,-3,-3,-11,-7,-3,-80,1,2
-10,2,-6,2,-13,8,5,-13,2
2,-18,-6,-5,-5,-4,-5,-7,2
4,4,-1,6,-1,-1,-41,22,2
1,4,7,-2,13,-4,-28,-14,2
3,0,-2,6,-1,-4,33,5,2
-14,-24,-20,3,-14,-9,-2,13,2
0,7,4,3,-5,-1,20,17,2
-8,-8,-4,5,-1,-3,11,-7,2
8,17,1,3,-1,-8,-60,16,2
-6,-9,3,-8,6,-4,54,-16,2
2,1,2,12,-2,5,14,9,2
-5,-1,-2,-21,-1,-11,-52,-32,2
-10,20,-4,-6,-8,-2,-28,-18,2
9,-2,1,4,4,-5,-25,9,2
-2,-13,-4,-13,-9,-7,26,-7,2
-5,-2,-3,-2,-3,-17,-3,-4,2
-8,-7,-4,5,-2,11,127,5,2
5,4,0,6,-2,7,47,7,2
-14,-12,-5,-10,-8,-7,-49,-11,2
7,30,5,9,3,9,14,12,2
1,-30,-4,-12,-1,-1,6,1,2
-5,-20,-9,0,-5,1,0,4,2
0,11,8,5,7,3,40,-3,2
-4,0,-6,15,-1,9,85,4,2
6,18,0,3,-12,-16,-38,-5,2
10,8,11,2,25,7,5,20,2
-16,-24,-14,2,-19,2,49,-15,2
-2,-8,-1,4,-9,-11,23,6,2
12,11,4,4,4,6,27,11,2
8,9,3,1,-5,-1,29,-12,2
-3,8,3,0,12,5,-49,-25,2
0,0,3,-10,5,2,-35,6,2
1,1,-8,5,-21,-1,-1,-9,2
14,-9,7,9,16,20,24,36,2
13,7,7,-10,12,-13,-99,11,2
-6,-13,-7,15,-12,15,125,-7,2
7,-7,3,-6,10,3,17,-2,2
-4,3,1,-14,-11,-5,-13,-10,2
5,12,-5,-5,2,9,17,6,2
3,-16,3,-1,11,0,-59,-1,2
1,19,3,0,3,-9,23,13,2
-14,-28,-7,1,-11,-1,-32,-21,2
23,14,-1,15,1,11,40,25,2
-6,-4,0,12,4,-11,31,7,2
-4,5,4,-20,9,19,30,-16,2
-12,14,-6,12,-13,4,127,-11,2
17,-1,4,-4,11,32,121,6,2
3,-7,-1,-9,-7,-24,-101,-2,2
-2,-4,-2,-15,7,18,52,-14,2
18,23,9,6,3,0,-45,25,2
-24,-11,1,13,5,10,72,3,2
17,21,14,22,23,20,70,-9,2
-18,-16,-5,21,-8,-9,-8,-6,2
6,8,-8,2,-9,4,60,-5,2
-15,-19,-10,-18,-14,-22,-95,-13,2
13,12,10,-9,15,20,11,-4,2
1,-3,0,-4,-2,-8,-56,22,2
-13,-12,-1,-9,-4,-2,2,-15,2
13,24,6,-4,3,-9,-103,5,2
0,-11,-7,0,-1,26,94,-4,2
-5,-6,-4,18,-6,-11,-24,16,2
-12,-22,-14,-5,-15,-11,75,-16,2
-1,8,7,-5,1,8,32,1,2
5,8,4,-22,5,-11,-24,0,2
10,-3,0,-14,1,6,-19,0,2
4,24,7,-22,5,10,-88,-18,2
-14,-35,-7,11,-6,-6,96,-16,2
-19,-14,-13,8,-19,-18,57,1,2
2,6,4,13,14,-1,-19,-12,2
-4,-27,-7,-13,-2,3,79,10,2
-4,7,6,12,14,-1,-44,-4,2
7,16,-1,-13,-3,2,17,-4,2
-1,-9,10,3,3,-7,-37,-9,2
11,-3,2,14,6,15,90,11,2
0,-9,-16,19,-11,-6,80,-8,2
-8,-18,-2,12,-4,-5,-62,23,2
-11,22,-5,5,-7,-6,18,4,2
4,-3,-3,6,0,-5,-103,5,2
8,11,9,-15,11,-8,-94,-4,2
-7,17,-3,-22,-22,-14,-48,-8,2
-4,-34,-9,-11,3,9,-51,-1,2
-9,1,10,-2,31,-6,-104,-10,2
-19,-3,-9,-19,-20,-25,-59,-19,2
-6,-5,-2,-8,-3,12,-21,-7,2
0,-1,0,-16,-5,4,42,-16,2
4,0,-4,6,-8,-10,66,0,2
15,14,-3,-21,-12,3,-19,10,2
9,-1,12,3,30,11,-19,3,2
-1,-7,-3,8,-6,1,127,9,2
-13,1,-8,-7,-17,-2,3,0,2
-3,-12,-3,-1,-2,0,12,6,2
23,17,10,6,14,18,6,7,2
11,36,16,-5,19,-8,-128,-15,2
1,-47,-23,-12,-20,5,67,14,2
-13,-7,7,15,14,5,-29,7,2
-3,-1,-8,4,-13,-6,38,6,2
-10,-9,-4,-3,-3,-11,-41,-4,2
-14,26,6,-30,-4,-28,-71,-18,2
-10,5,-10,14,-19,-1,102,-2,2
-14,-55,-15,-10,-3,-5,-10,1,2
4,7,-1,-6,-1,-3,-23,-22,2
9,8,5,2,2,13,3,10,2
8,3,6,14,20,5,-44,15,2
-10,13,1,-6,-8,-16,-7,-17,2
5,-10,-4,30,-3,22,127,34,2
-18,-10,-6,-12,-8,-38,-128,-25,2
-2,2,1,-8,-7,-2,96,-20,2
8,2,-12,-16,-8,8,42,6,2
-12,-14,1,8,1,-5,-27,2,2
6,38,16,5,13,0,-36,18,2
5,-44,-12,-2,-5,-2,-2,26,2
-17,-9,-4,-20,-9,-34,-86,-28,2
1,-7,-14,-16,-10,-9,-18,-5,2
13,16,17,1,4,9,50,0,2
-6,15,-6,-2,-4,-15,-26,-17,2
-4,-6,2,20,-3,5,44,7,2
2,-3,-3,-7,-3,-1,-74,10,2
2,11,0,-8,7,-1,-24,-18,2
10,3,5,-5,3,14,-4,8,2
6,20,13,-19,10,-15,-34,-56,2
-14,20,-10,0,-11,-2,-29,-4,2
3,-69,-21,5,-5,17,104,7,2
-21,-19,-6,-20,-8,-22,-113,-27,2
4,35,9,-3,7,0,21,-12,2
5,1,8,2,2,0,84,6,2
3,12,3,14,5,2,0,3,2
-2,-9,-3,-16,-16,-10,-26,8,2
-2,-11,-8,7,0,3,-12,22,2
-4,1,4,-6,1,-3,34,-3,2
-12,-9,-8,-2,-11,-11,-22,-15,2
4,3,4,17,-1,25,127,7,2
-15,-1,-3,5,-9,-23,-60,5,2
-1,-10,-3,-5,-2,-14,-28,4,2
4,-10,-3,-4,2,12,94,4,2
17,34,12,16,16,18,-7,5,2
-1,-8,-1,-4,5,5,-58,-10,2
-3,-16,-4,-15,0,-22,-77,-22,2
-1,13,1,3,-3,3,-13,9,2
-14,-1,-5,-7,-8,-2,45,4,2
4,-13,-5,24,-6,-4,77,40,2
-1,1,-2,17,-2,0,96,13,2
4,1,-1,1,-6,8,61,-6,2
-3,9,0,-15,-5,-17,-24,-14,2
-11,-34,-12,-17,-1,3,27,-27,2
10,14,5,6,5,12,68,0,2
-13,3,-4,-7,-5,-23,-111,-19,2
5,-14,0,4,1,8,71,8,2
-10,31,-2,13,-1,-6,-13,10,2
-7,-34,-6,-4,-5,-1,0,3,2
4,3,1,-1,1,4,13,-7,2
9,5,8,-7,14,2,-87,12,2
3,18,7,14,-3,23,108,13,2
4,-14,-10,-4,-2,-13,-88,-3,2
-1,-6,-3,-3,-6,8,90,12,2
6,12,-1,4,0,0,21,-11,2
0,-1,2,4,2,0,2,-2,2
2,6,-1,9,-4,-4,-15,3,2
10,14,14,2,17,19,68,14,2
4,0,3,4,14,10,113,-26,2
-1,-7,-6,6,-12,4,-36,24,2
1,1,2,4,5,9,72,12,2
-10,0,-3,2,-8,-13,-48,-18,2
-7,0,0,8,1,4,-19,8,2
8,-4,0,-18,3,-11,-85,4,2
4,3,4,1,10,17,35,5,2
5,18,1,7,-2,-15,-34,4,2
-16,-5,-8,-14,-14,-7,-91,-17,2
2,25,2,1,-3,11,72,8,2
-11,-44,-3,6,0,-11,-84,-11,2
-2,-6,-4,-9,2,-1,12,6,2
3,-22,-9,-3,-7,-5,67,21,2
12,18,6,3,-1,0,-41,2,2
-3,14,2,-8,5,17,13,1,2
-8,-8,1,-2,4,-3,-22,-5,2
-4,7,-1,5,-9,-1,62,-4,2
3,-19,-3,-10,0,-4,-32,10,2
-13,12,6,-11,-6,-1,59,-41,2
2,-38,-17,-2,-5,0,-26,-3,2
7,34,4,9,1,3,52,6,2
-6,-19,-2,12,2,2,-7,-8,2
-3,-3,-1,3,1,6,27,1,2
1,18,3,7,0,-8,-35,4,2
7,-5,3,12,6,13,73,0,2
-13,-21,-9,13,-7,-3,35,4,2
9,17,2,1,1,4,33,-2,2
2,-2,2,0,1,-1,14,13,2
-7,-9,2,6,11,-2,-77,-16,2
6,4,3,-11,-4,2,-25,-8,2
-1,-11,-8,-3,-9,-13,-47,6,2
1,22,1,5,-6,-7,-13,-7,2
-3,-14,0,-15,4,1,-13,-4,2
4,20,17,-8,3,4,-3,3,2
27,-29,-11,-17,7,-7,-10,3,2
-25,-13,-14,16,-10,21,66,16,2
-2,-5,-6,-19,-5,-11,-102,7,2
1,-2,0,5,-1,3,119,-8,2
0,15,11,7,6,2,-20,13,2
25,18,10,-14,19,-4,-113,-13,2
0,2,0,5,-5,2,38,21,2
3,-7,-5,7,2,14,1,-1,2
-15,0,-6,-37,-17,-33,-122,-48,2
0,-6,-1,-7,-2,15,86,-4,2
-4,4,1,-1,-1,-6,-1,-19,2
15,-2,-1,-2,5,-5,-37,19,2
1,36,11,-1,7,14,121,-3,2
-11,-30,-10,20,-17,-10,-51,2,2
0,-24,0,-5,8,10,1,11,2
12,11,-10,2,-8,-7,-3,-2,2
1,14,9,12,22,12,4,-12,2
0,21,11,-2,9,-3,18,1,2
-4,7,-1,3,-13,-11,-13,1,2
-3,-8,4,1,8,2,12,-13,2
-2,0,1,-1,-10,-2,-3,12,2
-5,6,-4,-10,-6,-6,-44,-9,2
-2,-21,-8,1,-3,-7,18,-7,2
5,6,5,-7,3,-10,-38,-6,2
-17,-27,-11,18,-17,6,33,11,2
0,1,-1,-8,7,4,60,2,2
20,40,11,7,0,-2,0,20,2
-27,-39,-11,-15,-11,-26,-14,-17,2
9,-12,-19,-3,-16,5,-80,21,2
6,7,17,16,20,3,-58,25,2
7,-6,-6,0,0,11,20,4,2
9,33,12,-9,8,-4,-41,-12,2
-3,17,3,15,-5,2,125,5,2
-6,-33,-8,-6,-8,2,-20,-3,2
17,19,4,-6,3,-7,-68,-14,2
-8,-10,1,6,10,12,-20,4,2
-5,-21,-5,-17,-4,-16,-30,5,2
5,11,3,3,-2,-3,-39,-2,2
-8,-10,-1,2,0,-7,1,6,2
-3,1,-7,-12,-10,8,31,-13,2
4,7,5,12,6,13,84,3,2
0,-2,0,-2,4,3,61,-14,2
-4,4,4,-3,4,-13,-127,1,2
-8,-11,-5,-1,-6,-2,90,5,2
7,9,4,-7,2,-7,-41,-10,2
12,2,0,1,-4,13,127,1,2
-13,-3,-1,24,3,-1,60,0,2
-1,-1,3,4,-1,1,91,-39,2
-8,3,-9,7,-11,-5,59,1,2
21,11,6,18,13,6,45,11,2
-17,-8,-9,1,-17,-10,-23,1,2
12,13,5,1,7,11,77,14,2
19,-19,3,0,23,11,70,6,2
-17,-19,-14,1,-19,-2,-17,3,2
-2,7,0,-8,1,8,55,1,2
-3,-5,-1,3,-1,8,54,9,2
1,4,13,-6,12,1,-99,7,2
16,32,4,-10,-3,-18,-59,7,2
-12,-35,-13,1,-8,2,32,-19,2
10,21,4,11,-2,8,-12,29,2
-16,-14,-12,-3,-9,-7,-6,-11,2
-1,-5,2,0,4,-1,-25,-8,2
1,43,12,6,3,-6,-3,-6,2
-8,-36,-10,17,0,-12,11,5,2
-18,3,-8,-17,-21,-25,-120,-6,2
-6,-13,-6,-1,-11,4,74,2,2
1,-6,-3,5,0,3,74,12,2
6,2,5,-2,11,0,-61,6,2
16,38,14,18,11,-5,9,19,2
-3,-29,-8,8,-4,12,85,-8,2
-13,17,-6,2,-9,-9,-107,-12,2
7,2,-6,-3,-5,9,36,10,2
-11,4,9,14,11,-2,5,-2,2
11,-16,-2,-6,10,-7,-3,10,2
2,1,-3,-12,-5,-1,23,13,2
-7,8,-5,-23,-11,-7,-121,-1,2
0,-18,-8,5,-9,11,68,6,2
11,31,14,3,9,-6,-70,-4,2
-7,-22,-2,-20,-3,2,-82,-22,2
-11,-19,-12,-26,-16,-37,-59,-5,2
1,12,5,-17,5,-2,-40,-21,2
-13,-9,-7,-14,-18,0,55,-5,2
20,17,15,3,14,9,109,18,2
1,18,0,12,3,23,-32,4,2
-2,-30,-14,5,-3,19,112,21,2
0,14,6,-4,7,-13,-31,-30,2
-8,-14,-10,0,1,7,4,9,2
10,13,10,4,12,14,12,-9,2
0,-2,5,-4,-8,-3,-27,6,2
1,-3,-16,2,-15,4,18,2,2
0,0,5,13,4,6,79,25,2
3,8,6,19,6,-6,20,9,2
-12,-10,2,11,-14,-7,44,-5,2
-4,9,-1,-9,-6,-4,-23,-3,2
7,-9,5,-4,8,-2,-10,-12,2
-4,0,-14,0,-9,1,76,-4,2
13,15,3,7,8,3,-5,-1,2
11,9,9,-17,6,2,-50,4,2
-4,-14,-19,4,-10,25,63,8,2
-25,-56,-4,15,-10,-5,7,-12,2
0,1,-17,-4,-1,-2,-40,-1,2
-10,-19,20,12,-6,-16,67,12,2
9,10,22,-6,11,-8,-19,-5,2
5,29,-2,-8,3,7,13,-11,2
16,52,12,-11,39,35,-76,-9,2
-31,-54,-29,-4,-18,-9,12,-8,2
5,-7,-7,10,-13,-7,62,-1,2
-10,-33,-8,-11,-17,-26,-4,-8,2
-11,-8,-7,-18,-15,-23,-36,-15,2
7,30,1,3,7,8,11,6,2
-6,-6,1,-11,-3,-15,-128,-9,2
1,-9,1,8,3,9,18,10,2
13,8,7,13,2,22,108,23,2
-7,-4,-2,7,-1,-5,-77,18,2
5,3,-4,3,-3,-7,35,3,2
-13,-10,4,2,8,10,-54,-28,2
18,60,10,11,1,-11,-1,6,2
-17,-53,-15,-16,-6,11,74,-7,2
-7,-7,-5,4,0,-8,-81,-6,2
4,10,4,-17,6,5,-11,8,2
-1,-12,1,-9,-3,-9,-18,-9,2
-1,9,-3,-23,-8,-5,-107,-7,2
11,18,8,9,16,5,49,-9,2
-1,-2,1,-19,-1,-12,-54,2,2
-3,-22,-7,-4,-9,6,6,3,2
-2,16,-1,-13,0,-10,-45,-9,2
-9,-11,-4,-7,-6,-11,-64,6,2
-1,7,-3,-3,-9,9,69,9,2
1,-14,-2,1,-3,-1,-5,4,2
7,25,15,22,19,-2,-1,-11,2
3,-24,1,1,2,16,75,13,2
1,24,5,10,5,-10,56,5,2
-9,-35,-16,-5,-22,-9,43,-15,2
-7,13,2,3,-3,1,30,-27,2
4,27,7,3,0,1,36,-8,2
5,4,-1,-7,7,-7,-65,5,2
-13,-38,-5,-5,-4,-5,22,4,2
-5,-6,-8,6,-8,-8,6,3,2
-3,4,0,-2,-2,-2,36,-9,2
9,8,-4,-20,-9,-7,-95,-9,2
-10,2,0,19,2,4,65,5,2
11,-3,5,3,11,9,-48,7,2
-15,-5,-13,-18,-14,-11,34,-18,2
2,-3,4,13,5,9,93,1,2
6,-2,0,-2,-2,-2,-70,6,2
-2,15,-3,11,-2,5,112,14,2
-2,3,4,-2,-1,-3,-36,-15,2
13,-5,3,7,10,7,52,-14,2
-14,-2,-9,-11,-11,-15,18,-7,2
0,3,0,16,1,15,119,13,2
-6,-8,-1,-9,-6,-10,-92,-3,2
-6,1,-8,0,-6,-4,-11,3,2
20,24,14,12,17,12,64,-3,2
-11,-8,-6,-11,-6,-8,-69,-9,2
1,-9,-8,0,-4,3,36,4,2
5,4,3,4,-1,2,8,5,2
1,28,7,0,8,3,-25,2,2
-10,-52,-12,-5,-6,10,69,14,2
-6,8,-3,6,-1,-21,-52,9,2
-10,-13,-9,-8,-12,4,70,-7,2
-2,1,0,-10,-4,-3,-41,13,2
12,14,5,0,6,0,-43,-5,2
-1,0,1,-1,3,11,32,3,2
-8,4,-1,-5,-7,-6,40,-4,2
-9,-32,-10,-1,-5,-13,-5,-13,2
-3,-5,-3,5,-3,-3,9,1,2
0,-8,-1,-9,0,0,-33,-6,2
-2,11,4,6,0,-8,-52,-6,2
-10,-8,-1,-4,6,6,19,-11,2
-1,4,2,-4,4,-9,-63,-15,2
1,8,1,-9,5,-11,-114,-1,2
4,-20,-5,-7,2,17,45,10,2
-4,4,-1,-7,-3,-13,-124,-3,2
4,17,7,5,-2,13,59,12,2
-3,-8,-5,-3,3,1,-6,-12,2
3,-5,-2,16,2,-7,-22,4,2
-1,-1,0,-2,-2,-1,17,-4,2
4,7,0,-4,-1,-12,-7,5,2
-2,22,4,7,-3,5,12,13,2
-10,-6,0,-22,-6,-14,-88,-26,2
-4,-19,-9,4,-12,3,90,-3,2
12,28,14,1,22,5,-40,5,2
-13,-38,-15,9,-16,6,87,7,2
-1,3,1,5,4,-4,-56,30,2
-4,-2,-3,-14,-9,-4,-49,-6,2
-3,5,-1,-20,-6,-14,-108,-21,2
16,26,7,8,11,13,26,-5,2
-2,-26,-1,8,2,3,93,-11,2
-21,-6,-7,-3,-14,-6,-61,4,2
1,-14,-8,-3,-7,-3,97,4,2
2,6,3,-7,-5,-2,6,-13,2
14,30,12,10,11,18,51,22,2
-5,-13,-5,-11,1,-18,34,-6,2
2,-1,2,5,2,2,-76,-3,2
2,-8,-4,-6,-6,-7,-71,5,2
-3,4,-2,-6,-4,5,24,2,2
11,17,9,5,7,1,-22,5,2
-8,-38,-10,-11,-6,-6,-24,0,2
3,12,-2,-1,1,11,47,1,2
-10,-13,-3,2,-3,-3,21,4,2
23,-3,6,6,14,9,-33,-11,2
-21,-3,-8,10,-11,9,127,-5,2
4,17,0,11,3,4,-96,16,2
6,-2,4,0,5,1,53,-10,2
0,13,1,9,2,6,7,8,2
11,13,8,11,8,12,86,14,2
-2,-24,-2,2,-3,-13,39,1,2
13,22,4,2,4,0,-82,9,2
-20,-15,-9,-8,-15,-9,78,-4,2
10,2,-1,3,-2,3,-35,11,2
2,7,2,6,8,3,8,-2,2
-9,-20,-10,3,-4,-11,-60,-4,2
4,5,8,1,6,4,24,6,2
-12,-14,-6,-9,-7,-16,-52,-12,2
3,-6,-2,-9,-4,3,-6,-17,2
2,6,-1,-4,-1,-5,-10,-5,2
5,8,4,10,10,15,59,-11,2
3,2,8,12,3,15,127,-2,2
-11,-1,-4,-11,-14,-8,31,-20,2
-12,-36,-14,2,-9,-10,-41,4,2
3,7,1,1,-2,6,15,10,2
8,14,4,-17,6,-15,-128,-22,2
3,0,5,9,3,3,86,13,2
-3,20,5,-15,-1,-1,-5,-36,2
-1,-8,-5,-23,-3,-10,-69,8,2
6,4,-2,-9,-6,-6,2,20,2
-17,-10,-4,-6,-9,-11,-39,-33,2
-1,0,-4,-5,3,-1,-14,6,2
3,-7,-1,8,3,7,46,12,2
6,10,0,-2,1,2,-50,-4,2
-1,-7,1,5,9,5,64,12,2
-3,2,-1,14,-12,10,127,13,2
4,5,3,6,2,2,50,-2,2
0,-1,2,2,4,0,-14,4,2
-10,40,-7,-30,-12,-21,-37,4,2
-9,-23,-4,-3,-5,-7,-89,-7,2
0,-21,-8,-7,-4,-2,-18,5,2
-12,-3,-4,6,-4,0,98,7,2
26,-6,11,-10,19,-3,-40,7,2
-29,23,-15,-7,-28,-6,36,-6,2
-2,-12,-2,1,-5,6,42,13,2
7,5,4,-17,3,-39,-121,-26,2
1,-6,1,7,5,27,35,16,2
15,8,8,4,13,-3,37,16,2
0,-1,-2,4,-1,-6,-49,-19,2
-13,4,-10,-5,-18,-7,56,1,2
-13,-24,-9,-2,-8,-7,1,-17,2
8,-6,3,-8,4,-3,-110,5,2
13,32,10,11,13,11,14,10,2
-13,-31,-9,-21,1,-17,-13,-20,2
7,-2,0,16,-4,5,80,10,2
-3,1,-1,2,-7,3,93,-8,2
-2,-11,-3,-10,-3,-12,-68,-4,2
6,10,5,2,6,5,-68,11,2
-7,-14,-4,-26,-16,-22,-61,-18,2
3,35,-1,4,6,18,59,-1,2
-14,-45,-13,-5,-2,-16,-18,-21,2
-6,-15,-2,4,0,-3,-64,-19,2
-2,-6,-1,0,-4,4,74,1,2
13,0,6,5,7,5,-85,23,2
1,25,-1,3,-10,5,88,13,2
9,-9,2,19,11,10,-8,6,2
9,12,7,14,11,1,-59,-18,2
2,7,5,5,2,-6,88,-12,2
7,-1,-4,8,6,24,17,19,2
-2,1,0,6,-2,-6,-28,0,2
-9,9,-6,-6,-8,-1,6,2,2
1,2,1,5,0,-2,-10,8,2
1,-9,1,-7,4,1,-45,-14,2
4,34,7,-1,-6,10,78,6,2
12,12,-8,-1,-1,1,-29,11,2
-22,-56,-3,-4,4,-1,-40,-9,2
-4,5,-1,-2,-9,-16,-1,-10,2
-9,-9,-4,-7,-4,7,61,4,2
15,20,10,5,1,1,-19,21,2
1,16,5,6,9,14,0,-15,2
-15,-51,-12,-5,-3,0,59,-15,2
6,5,1,16,3,23,44,19,2
-4,-11,-2,-5,-4,-18,-6,2,2
10,-2,-2,5,-1,-24,7,4,2
3,25,11,-21,-5,2,-119,-11,2
9,18,0,-11,1,-18,-66,-7,2
-17,-34,-10,-4,2,25,14,9,2
5,3,1,-10,0,15,30,-6,2
4,15,11,21,4,-6,103,24,2
-5,-6,-12,-13,-14,-11,-27,-1,2
-8,13,3,-5,2,-11,-117,3,2
3,-10,-14,-7,-7,-5,50,0,2
-2,19,5,3,-1,7,-22,0,2
2,3,-3,25,6,14,55,4,2
5,21,13,15,8,1,5,-4,2
-8,-31,0,-16,-8,-10,-51,-16,2
10,-9,-15,-2,-2,-8,28,11,2
-19,-2,-3,2,-7,-5,9,-22,2
-23,-13,-12,-9,-10,-6,-78,-21,2
-3,19,7,-7,-2,0,-45,-2,2
3,10,6,-3,4,-10,-47,2,2
6,-12,-3,-13,0,17,38,1,2
9,-2,0,9,3,45,108,-1,2
-1,-9,-3,14,-4,-15,94,25,2
-3,4,-3,3,-3,2,21,-11,2
8,-3,6,-8,14,19,17,4,2
-4,4,11,-8,-3,-24,25,-3,2
3,17,-12,-2,-5,-3,28,9,2
-8,15,4,0,2,-4,-67,-43,2
-3,-24,-10,4,-2,-10,23,12,2
2,-50,-8,-3,-3,8,14,17,2
-5,17,3,-13,3,3,-121,2,2
6,18,5,10,3,-16,-25,16,2
0,18,8,6,2,14,103,9,2
3,2,-4,-16,-1,-49,-128,-40,2
-22,-24,-8,5,-21,22,119,-7,2
2,-8,-4,-2,-2,5,-42,16,2
-3,7,5,1,-5,-20,-27,-2,2
5,-2,1,12,10,28,127,11,2
6,6,3,-11,4,-24,-61,-12,2
-2,-3,0,-4,1,5,77,3,2
5,4,5,-4,13,4,-93,-11,2
-13,-10,-11,-9,-18,-19,-23,6,2
-5,9,4,3,-1,-2,-33,1,2
6,-14,-10,-5,1,17,23,14,2
0,8,2,-7,5,-15,-68,-3,2
16,22,2,-15,5,13,24,7,2
0,-35,1,4,11,1,-82,23,2
-15,-9,-7,-10,-17,-7,-28,3,2
-11,-22,-10,-2,-19,-17,-30,13,2
-1,31,2,12,0,-2,33,-18,2
13,12,3,-2,5,5,51,4,2
4,3,1,-4,3,-10,-74,-3,2
8,4,7,8,14,-1,105,9,2
-7,-16,-10,16,-19,20,72,21,2
-2,-6,-9,0,-10,-33,-106,-18,2
1,-1,4,-1,9,13,-9,-6,2
12,10,8,2,3,-2,48,9,2
3,-5,2,-4,13,-16,-118,4,2
0,10,-2,-27,-15,1,13,-42,2
-6,-3,-4,3,-1,5,-71,-2,2
0,3,-1,-3,-4,6,-43,7,2
6,-14,2,-20,8,4,-17,4,2
16,32,14,1,16,21,42,3,2
1,-12,-4,0,-4,-13,14,12,2
-21,-18,1,-1,-5,-4,-67,-42,2
1,-21,-13,0,-5,-4,17,6,2
20,26,8,16,10,7,-18,19,2
16,10,23,-2,30,27,110,-14,2
-13,-44,-30,-8,-18,9,-20,-1,2
-16,3,-2,0,-14,-10,-14,15,2
-8,-18,-8,0,-3,-13,-51,-8,2
33,55,15,-6,1,-1,82,7,2
-11,-1,5,-21,10,14,-96,-35,2
-21,-24,-6,17,-10,-17,16,-20,2
-9,-9,-9,-5,-10,-6,-88,2,2
-7,-10,-5,-9,-5,-11,-16,-3,2
4,8,-11,5,1,6,118,8,2
9,16,18,2,15,4,-43,-2,2
-7,-10,2,0,3,4,101,-1,2
-4,-6,2,9,-6,3,61,-3,2
1,20,-1,1,-5,-12,-41,14,2
-3,-10,-20,2,-5,13,82,-5,2
-10,2,4,-4,5,-23,-16,9,2
-8,-33,-18,4,-10,10,38,6,2
-12,-17,-8,2,-10,-22,-70,5,2
4,7,7,0,5,12,104,-15,2
19,12,9,4,16,18,-47,-3,2
-11,-1,-6,18,-9,-19,62,8,2
8,7,4,4,-2,12,31,-6,2
3,5,-1,8,-4,6,38,9,2
-9,-19,-8,4,-9,4,-21,1,2
5,27,9,2,-2,-4,3,13,2
-10,-3,1,1,16,-5,-48,-17,2
3,-31,-3,0,10,0,-9,-6,2
13,16,2,-9,-5,2,-10,-8,2
19,-10,10,12,29,31,54,10,2
-5,24,-6,-1,-39,-51,-79,37,2
-17,4,-5,-16,-25,-23,-50,-15,2
-13,-42,-16,-1,2,12,32,-9,2
-3,14,11,-10,5,-4,-82,-18,2
8,-1,5,1,12,5,68,-3,2
7,12,5,-15,3,-6,-86,-12,2
6,-11,3,2,-5,-3,23,4,2
-15,-2,-8,-8,-12,-12,-69,-13,2
2,-13,-2,-14,-3,-1,-15,-5,2
2,0,1,8,9,-2,-79,14,2
-6,14,5,-10,8,-1,-35,-9,2
-32,-20,-18,-11,-25,-30,17,-28,2
-3,-18,-1,-2,1,16,-4,5,2
13,23,8,2,7,11,-2,6,2
-5,-25,-6,4,2,2,14,12,2
0,5,3,-5,6,-8,-60,2,2
12,2,0,0,6,6,59,5,2
-1,13,-3,-8,-5,-3,-43,-5,2
0,-8,-1,3,-1,-13,52,17,2
1,-2,-4,10,-6,-1,69,18,2
6,14,-1,12,2,21,80,-9,2
-5,-6,11,0,9,-13,-76,-1,2
6,33,-4,-5,-8,27,106,-26,2
-1,-14,-6,1,1,-14,-107,-1,2
5,7,3,-5,-1,-1,-6,13,2
0,-7,-2,5,1,1,32,5,2
9,20,15,11,12,8,44,7,2
-7,1,-5,3,-8,-2,28,-20,2
-2,-21,-6,-17,-5,-13,-17,-7,2
-3,-2,-3,8,-8,8,127,10,2
-5,-10,-5,7,-7,4,46,1,2
7,6,-3,-8,1,14,-44,16,2
-4,-5,3,4,5,4,78,-3,2
-13,16,1,1,-5,-12,1,-21,2
-1,-12,-4,-7,-11,-2,-48,-1,2
-1,-9,4,-2,4,7,0,4,2
3,13,-4,11,-1,-3,-14,0,2
6,-7,-3,-4,3,0,-45,6,2
5,6,1,-2,2,1,39,0,2
-8,13,1,4,-12,-4,106,-8,2
8,-9,-1,12,6,15,69,4,2
3,8,-2,-2,-1,4,-90,4,2
-6,-39,-2,6,4,-3,8,8,2
-1,-7,-5,-13,-2,-8,-84,6,2
4,23,6,0,-1,-4,-2,3,2
-6,-33,-4,0,5,5,16,12,2
8,28,5,-4,4,5,40,-21,2
-15,-9,-8,17,-5,2,118,10,2
-11,4,-2,8,-8,6,60,-4,2
-1,1,-1,-17,-4,-7,-57,-6,2
-4,-1,4,6,7,-9,-34,9,2
4,3,1,-1,2,6,47,-5,2
6,14,10,-15,-4,-7,-37,-1,2
-6,-24,-15,-4,-6,-14,-10,7,2
-10,-1,-3,1,-3,2,-26,-1,2
8,16,-1,-9,3,0,-63,-6,2
-9,-22,-4,8,3,-9,-15,9,2
24,47,15,0,10,13,23,6,2
-15,-35,-5,1,8,9,52,-10,2
2,10,-2,13,-12,-14,-128,24,2
-16,-34,-9,-31,-7,-18,-84,-30,2
-3,-2,1,-15,-8,16,43,3,2
6,23,-4,21,-5,-15,-60,16,2
4,-11,6,5,9,-16,40,0,2
-12,-15,-16,-28,-17,-13,-114,-35,2
-6,43,10,17,7,13,93,-16,2
-11,-93,-12,-19,-4,-7,-27,18,2
-8,-1,-5,-17,-8,-20,-20,-12,2
9,9,6,14,6,5,78,13,2
5,24,7,-1,-2,2,-1,-11,2
5,2,-4,-11,-7,-9,-58,-10,2
2,-2,1,-6,-2,13,19,-12,2
17,22,4,8,8,17,2,17,2
4,-2,-8,10,-4,2,73,12,2
4,13,4,-5,3,-3,-57,-5,2
-4,-19,-9,-19,-6,7,-72,17,2
-4,-1,-2,-7,-6,-4,21,-31,2
-1,-4,6,10,14,-10,-44,-6,2
6,12,0,-7,-2,-11,-105,12,2
1,12,2,8,0,17,122,-36,2
-1,9,14,22,24,14,-67,10,2
10,-21,2,-2,12,-1,-81,13,2
-8,20,-8,-4,-19,4,87,-1,2
-8,0,-8,-11,-17,-17,-27,-3,2
2,-4,2,4,9,8,-25,4,2
7,-5,6,-11,8,-11,51,9,2
-27,-1,-7,6,-29,-31,-16,0,2
2,9,-5,4,0,2,-19,1,2
7,-46,-7,4,-1,5,-16,-8,2
16,55,12,1,2,-14,-55,21,2
-15,-30,-3,2,3,-11,56,-6,2
-3,-8,3,13,5,4,69,7,2
-24,-15,-9,-12,-18,-16,32,-15,2
5,-4,6,-21,9,12,-23,-5,2
13,18,2,-9,-4,2,-48,-6,2
-21,-8,-9,14,-8,2,55,20,2
6,17,3,1,1,4,47,22,2
-14,-12,-1,-2,0,-14,-88,-22,2
15,19,5,-9,3,22,51,-7,2
3,-13,1,-1,7,4,-76,-21,2
3,36,9,-10,-3,-12,29,-8,2
-24,-23,-18,-4,-19,-4,63,2,2
1,-8,-8,16,0,28,-49,5,2
4,-16,5,-4,16,7,-23,-8,2
22,26,13,5,6,7,-55,8,2
-18,-23,-16,4,-11,-5,14,-13,2
10,11,8,8,7,-7,-62,6,2
11,10,8,1,15,26,92,-7,2
-16,-14,-4,14,-20,-30,-52,10,2
-6,-12,-8,7,0,20,21,-11,2
4,23,3,-15,3,-22,-61,-14,2
5,-4,4,5,5,2,-9,18,2
1,0,-5,-3,3,17,75,-10,2
0,-7,10,10,2,6,44,4,2
0,4,-2,2,-3,9,75,5,2
1,7,5,-4,2,-17,-78,-5,2
-6,-5,-11,-7,-5,-1,15,3,2
3,-7,-4,5,-8,0,75,-5,2
5,9,5,6,14,19,44,14,2
-10,-8,-7,-21,-18,-34,-83,-4,2
2,0,0,4,6,-6,-30,11,2
-5,0,0,-12,-1,7,-84,-6,2
5,4,2,-5,12,-5,-29,-23,2
0,1,-3,12,2,4,44,16,2
-8,-19,-11,-7,-12,-9,-109,8,2
-19,-23,-7,7,-3,-2,58,-6,2
-5,8,6,8,2,0,41,-3,2
19,44,9,1,8,22,57,6,2
19,56,14,21,10,2,54,-17,2
0,-67,-14,-4,-7,-25,-88,11,2
-13,-10,-11,-15,-17,-13,-71,3,2
0,-9,-1,1,-1,14,29,-1,2
-3,1,6,10,6,7,39,5,2
-3,19,2,-1,-6,1,43,-6,2
-7,13,-3,25,-5,4,99,1,2
6,-36,-8,-11,-4,0,-87,-5,2
-6,-13,-9,-13,-14,5,107,4,2
6,13,7,0,10,-13,-118,17,2
-5,-10,0,-8,1,11,80,-2,2
15,21,5,-11,1,10,-28,-24,2
-15,-17,-8,-11,-5,-11,-44,-4,2
12,6,6,12,4,10,127,11,2
-7,3,-2,14,-6,-19,27,-29,2
-9,-8,-6,7,-5,20,-7,0,2
2,-11,1,-5,9,13,-58,1,2
4,39,1,14,-10,-5,46,-11,2
7,3,11,-10,7,-6,2,4,2
-2,-31,-11,5,2,-7,75,6,2
2,-2,2,-2,4,9,32,-1,2
1,3,-1,-4,3,6,-30,0,2
13,15,6,-2,-3,-7,-73,6,2
-24,-7,-3,3,-1,-5,-25,-8,2
-3,14,3,1,-6,-5,-19,6,2
9,-36,-9,-4,-2,5,12,-3,2
0,-2,1,4,6,-4,-84,17,2
-5,-6,1,-3,1,-1,67,1,2
-3,-6,-4,3,-7,-5,-54,1,2
-10,63,8,-10,-16,-11,-71,-12,2
-12,-80,-26,-7,-4,-15,-22,2,2
3,4,-2,17,-2,1,82,7,2
7,4,4,1,9,7,68,15,2
-15,-10,-7,-13,-9,-7,-42,-31,2
16,13,1,-10,-6,22,84,13,2
-1,22,14,-11,13,-34,-128,6,2
-17,-25,-16,1,-21,3,127,-10,2
-5,-17,-7,-15,-9,-8,-99,13,2
-2,11,-2,-1,-4,-5,-23,3,2
7,-1,4,-1,12,6,41,7,2
-1,11,4,-20,2,-12,-104,-49,2
-2,-13,4,12,14,-1,22,8,2
-9,-9,-12,0,-15,14,100,-12,2
-3,24,-1,7,-7,5,-91,15,2
4,1,5,2,11,-1,-41,7,2
4,-5,-2,-3,-3,4,22,4,2
15,7,2,9,5,1,-11,2,2
1,10,10,3,12,8,21,-4,2
-6,-5,-7,-9,-18,-15,16,1,2
7,12,-2,-8,-5,9,-52,4,2
1,2,17,18,32,6,-59,16,2
-14,-35,-23,-11,-20,-13,-12,-7,2
-9,2,0,10,-3,6,32,6,2
5,-4,-1,2,-1,2,-7,13,2
-3,5,2,6,3,8,-20,-7,2
8,10,17,9,25,7,15,9,2
14,-1,5,3,10,1,31,16,2
3,-1,-1,-9,-2,-8,-54,-5,2
-8,2,-5,-14,-15,9,76,-3,2
5,-2,-1,1,-6,-3,-37,-8,2
15,15,6,3,21,21,43,-1,2
-14,12,7,-1,-15,-26,-66,-1,2
-17,-38,-35,1,-29,-4,51,-9,2
-3,-36,-2,-5,-9,-13,-80,-1,2
18,27,4,1,15,20,26,10,2
13,22,8,-4,-4,-3,-36,7,2
-5,-25,-11,-5,11,-6,-66,-4,2
0,6,-1,-6,-10,13,127,5,2
-17,-25,-24,-8,-39,-30,-126,-1,2
16,8,14,-1,22,16,35,2,2
4,26,14,-16,-2,-16,-76,2,2
-1,4,-5,1,-3,-8,-5,-9,2
-5,-8,2,3,-2,-5,-1,7,2
-5,-10,-14,1,-6,-7,28,-18,2
0,-2,9,4,9,8,1,-4,2
0,28,4,-7,-5,-7,-8,-16,2
10,25,6,9,1,6,29,16,2
-18,-42,-13,10,2,-18,-7,-10,2
-2,4,4,-10,9,4,38,-9,2
-16,-13,-16,6,-30,-7,-12,-17,2
-2,8,9,-6,6,8,-2,19,2
1,2,-8,0,0,21,127,19,2
10,32,23,8,27,-13,-75,-1,2
1,-15,-9,-13,-15,1,72,10,2
8,-9,1,8,0,-5,5,-13,2
7,-3,4,3,14,-3,-46,20,2
-6,7,-2,1,-16,5,26,-2,2
-8,6,4,1,8,3,-14,2,2
8,9,0,8,3,-2,8,0,2
1,-10,-4,3,0,5,-2,3,2
-1,11,-2,3,-4,0,26,5,2
6,4,3,4,7,-5,-54,-3,2
-12,-10,-4,-17,-4,-5,-40,-21,2
1,19,11,13,-2,2,67,-2,2
-10,-36,-19,-19,-7,5,-38,-1,2
-2,-21,-1,-1,-2,-8,4,-24,2
-1,-13,-2,-7,12,10,77,9,2
-8,-4,1,-11,1,-3,-32,-33,2
-4,2,-4,0,-19,-23,-40,-1,2
10,7,3,-9,8,3,-2,16,2
4,1,2,7,3,8,2,-4,2
5,-2,-4,-4,-9,-10,62,17,2
10,14,4,-2,3,15,48,0,2
-8,3,-6,15,-10,-12,59,17,2
-5,-5,2,-3,3,3,-88,3,2
-5,-2,-3,-1,0,5,-46,-3,2
8,6,8,-1,2,0,-6,1,2
8,18,-2,-3,1,-3,15,11,2
-8,-20,-9,4,-7,-1,67,7,2
-3,-5,-8,-9,-11,-15,-51,-5,2
-4,-10,1,-5,5,6,-19,4,2
6,-26,-16,-6,-11,-3,18,-1,2
7,24,14,-5,13,-14,-5,-3,2
-16,-14,-7,-18,-4,12,87,-50,2
-11,-14,-7,3,-10,20,34,12,2
1,8,2,-11,-1,-2,-74,-9,2
-12,-11,-9,-1,-8,-11,-36,-5,2
10,13,6,4,11,5,4,9,2
-1,-4,-1,-8,-7,-2,31,-22,2
0,5,8,3,14,11,-32,5,2
5,-3,-1,3,-1,-1,23,12,2
-4,2,1,14,7,8,0,12,2
4,14,-3,-5,-8,-11,61,3,2
-13,-13,-1,-3,4,-4,-42,-12,2
-4,-9,-1,-2,-2,-9,-85,-12,2
-5,13,2,-5,-10,4,36,0,2
-2,-12,-18,-22,-17,-23,-53,-15,2
25,4,14,10,26,9,29,29,2
-9,-10,-6,10,-9,10,29,20,2
0,-7,-2,-1,-9,1,-3,8,2
13,27,8,9,-3,-17,-72,6,2
-4,15,6,7,12,21,65,-23,2
-3,13,-13,-11,-19,-25,-31,-28,2
9,-28,-9,5,-2,9,26,23,2
-1,0,16,25,39,26,-1,20,2
4,-1,-3,-3,-12,-6,-66,-8,2
-8,2,2,11,6,6,55,-10,2
2,8,8,-16,13,-5,-32,1,2
-1,-10,-16,-14,-34,-25,1,-19,2
-16,-2,6,4,7,-4,-14,-20,2
3,1,1,-11,4,4,14,3,2
-5,-8,-3,15,1,-10,-3,4,2
-6,-5,5,-5,8,-3,-77,-12,2
4,3,-6,-4,-21,-4,61,9,2
-3,-21,-8,6,-12,8,36,4,2
-2,-8,-10,4,-4,-8,-80,13,2
-17,13,4,27,6,-7,36,-16,2
0,-20,-12,-3,-6,6,-23,14,2
4,-10,3,6,5,0,-35,12,2
-13,-7,-2,3,5,-7,-50,-15,2
11,9,6,-11,14,11,81,0,2
-11,-7,-12,-5,-22,-21,-83,0,2
-3,-1,0,-6,3,0,44,-12,2
0,3,-3,-9,-11,-1,23,-6,2
-2,-1,-7,-7,-6,-11,-59,-6,2
9,24,13,9,13,15,51,13,2
2,-28,-14,2,14,10,-23,7,2
5,4,7,2,2,3,-18,-1,2
5,1,4,-12,3,5,36,8,2
-6,-2,-6,-7,1,6,2,-18,2
4,14,0,0,-8,-25,-87,-1,2
5,22,3,3,1,14,-5,5,2
-12,-42,-5,4,6,0,-85,19,2
-9,2,-5,4,-10,-14,70,-12,2
5,4,7,-4,10,0,37,7,2
-7,-1,-9,0,-18,-11,43,-24,2
4,13,1,-3,-5,8,49,8,2
8,4,7,-2,15,3,-63,7,2
-10,-7,-4,9,-11,-18,40,-2,2
4,5,7,3,12,27,85,5,2
3,-3,-5,22,-10,17,98,12,2
-6,-15,-15,-11,-28,-22,-12,-15,2
6,-4,12,-2,19,15,-4,26,2
1,-23,-8,-3,-13,-15,-19,-4,2
-4,9,5,1,9,5,0,0,2
16,11,14,8,18,17,71,19,2
1,14,2,-17,-3,3,11,-8,2
-4,4,0,0,-1,-2,42,2,2
3,-7,-6,-5,-12,5,-10,2,2
5,-6,-1,-9,-4,-4,-36,9,2
0,8,-2,-6,-3,-2,-62,-14,2
14,5,13,0,22,8,-9,11,2
-12,-3,-7,-7,-8,-5,-9,-7,2
-12,2,-10,5,-9,-5,13,-14,2
-24,-11,-10,-9,-13,-15,-61,-31,2
-3,-5,5,-4,18,-5,-68,-10,2
11,20,12,7,17,0,22,-8,2
-3,-4,7,7,15,2,38,18,2
-10,-16,-2,3,-5,-5,-10,-26,2
-16,-16,-25,-13,-55,-6,35,2,2
-4,2,7,8,21,1,-103,-6,2
-3,-3,8,-5,15,5,7,0,2
15,21,8,2,-52,-1,3,18,2
3,6,3,-3,52,-8,2,-15,2
0,0,-9,-5,-71,-6,100,14,2
-24,-53,-22,-14,-11,-23,-55,-11,2
3,18,17,25,52,29,114,12,2
6,11,13,12,59,22,87,1,2
4,-2,2,1,19,16,-9,17,2
22,27,14,6,65,39,8,10,2
-2,-17,-7,-6,-40,-10,53,9,2
10,59,-5,19,-76,-31,-74,11,2
18,-28,15,29,22,7,72,11,2
-14,-6,-14,-21,-50,-10,-46,-13,2
-12,-11,-6,-4,13,-8,-42,-5,2
-12,4,-8,-23,-6,-15,-79,-20,2
-9,21,-7,-10,-9,-5,46,-15,2
1,-7,-4,10,-9,6,2,-2,2
5,1,0,-8,15,-1,-37,4,2
-20,-28,-16,-16,-35,-21,-54,-24,2
4,18,11,-22,17,-7,-93,-25,2
-14,3,3,5,10,-17,-64,-17,2
-9,-22,1,25,17,0,12,-8,2
6,-4,7,7,-8,6,54,9,2
-7,-9,-25,-2,-7,-12,-26,0,2
-21,11,6,27,5,0,74,-21,2
-4,-22,-13,-19,-18,-19,-49,-8,2
6,-1,8,-12,12,10,-35,4,2
-2,-10,-1,-5,9,6,26,8,2
17,23,5,-17,-7,-6,36,-7,2
-2,18,-9,12,-16,8,65,-1,2
-4,-8,8,4,19,12,11,3,2
7,-15,-8,-22,-8,-18,-46,2,2
-7,-6,-5,7,-9,-5,31,-25,2
3,1,3,-12,8,-1,-61,3,2
18,17,6,7,5,9,25,33,2
1,17,7,7,1,11,41,22,2
-3,-27,-8,-11,-10,-6,-73,9,2
10,11,7,2,9,9,2,16,2
3,-2,8,12,6,11,127,11,2
-6,-7,-22,-13,-24,-26,-55,-28,2
-8,-22,-9,-24,-10,-12,-57,-1,2
-7,-15,-15,-3,-23,4,56,-9,2
5,-8,8,-16,16,1,-37,-1,2
-11,-5,7,17,13,8,127,2,2
16,29,9,-3,-2,-4,-52,14,2
-2,-2,-6,0,-13,7,88,-3,2
3,-14,-8,9,-9,6,-10,16,2
19,66,37,31,42,20,-46,22,2
-10,-61,-24,-12,-13,-2,-21,-8,2
12,1,12,16,17,11,86,8,2
0,5,-17,-4,-21,-7,64,-21,2
-7,-24,-14,-9,-15,-17,-57,5,2
28,38,14,8,8,17,-7,25,2
-2,16,9,-1,12,8,5,-6,2
-3,-7,-1,6,3,-1,-38,-3,2
2,-3,-5,-20,-16,-5,-63,-11,2
8,17,12,21,16,18,67,2,2
-6,-9,-12,-18,-17,-16,-85,-8,2
1,9,14,6,18,9,31,10,2
-2,-14,-7,-9,-9,11,98,5,2
-5,0,3,13,7,-4,-63,-6,2
-5,0,-5,-10,-12,-16,45,7,2
-13,-16,-10,12,-13,0,50,5,2
-4,-9,-1,-8,2,-11,-116,-24,2
-2,0,-5,0,-10,1,127,28,2
13,16,6,5,0,12,-16,11,2
9,-1,0,8,10,-2,-70,1,2
-7,-13,2,8,4,7,103,0,2
-18,20,-8,-18,-26,-25,-57,-2,2
12,-20,-2,0,5,-3,-1,21,2
-6,-3,-4,-10,-8,-11,8,-8,2
6,8,10,13,20,-6,11,-22,2
-13,-5,-2,0,-3,7,124,-14,2
-14,-2,-11,-9,-22,-16,-83,-23,2
1,-5,-6,-24,-11,-2,-18,-4,2
4,8,9,2,16,9,-28,9,2
3,-5,3,4,2,-6,16,-1,2
18,13,7,-7,5,8,39,6,2
-28,-30,-24,-4,-35,-24,-16,-26,2
5,13,16,-3,18,3,-25,24,2
11,9,3,-9,-1,4,-30,12,2
5,-2,1,19,7,25,108,54,2
-50,-13,-12,-17,-20,-59,-109,-69,2
-6,-23,-17,-4,-19,10,77,18,2
-3,-2,-1,-9,5,5,-17,-16,2
-5,11,2,2,0,-8,-25,-6,2
15,18,14,20,19,10,-17,4,2
-35,-28,-23,-36,-30,-38,-75,-50,2
-8,-12,-8,3,-13,-1,107,-9,2
4,2,4,-8,7,11,43,-9,2
17,13,10,16,16,4,-15,35,2
-5,-3,-2,-8,-2,5,82,-13,2
1,-13,-5,-1,-12,-4,-25,11,2
-7,15,-4,-12,-3,-9,-78,-17,2
13,28,23,-2,31,27,23,18,2
16,-42,-12,4,-13,2,2,19,2
7,22,13,7,22,16,-26,8,2
-13,-39,-13,3,-5,-12,-35,-10,2
5,28,-3,-2,-8,0,100,-9,2
-9,2,-1,14,-8,-6,-33,-9,2
5,-15,-1,-9,5,-1,-47,3,2
7,23,5,-17,-5,0,-71,6,2
-4,-40,-7,5,5,23,123,32,2
1,9,-7,7,-18,4,20,2,2
10,19,19,10,32,15,-1,17,2
-6,22,3,7,8,-2,21,6,2
-1,-23,-6,-1,-11,-3,-50,-4,2
19,14,5,-13,2,-6,-87,29,2
-24,-16,-14,18,-19,-10,61,-25,2
-4,-1,-1,-3,-6,2,47,9,2
7,1,6,5,11,8,-28,12,2
-18,-11,-13,0,-13,-14,14,-36,2
9,26,11,-12,8,-4,-74,5,2
-2,-27,-2,10,6,-5,-14,-2,2
1,-13,-4,6,-6,0,17,21,2
-4,65,12,-9,-1,-7,29,-62,2
-12,-69,-21,13,-12,6,127,19,2
-1,1,-1,-3,2,-2,-40,-25,2
-14,-15,-10,-12,-16,-20,-63,-19,2
17,34,21,6,19,17,37,21,2
-3,-18,-7,-12,-5,-7,-39,-9,2
-3,-7,4,9,8,3,27,1,2
8,3,-5,-3,-2,-2,-4,-6,2
-7,-19,-3,3,-7,-10,-1,-7,2
5,22,3,-16,-1,-7,-2,-11,2
-3,-7,-3,2,-1,1,-30,12,2
6,9,6,-13,3,1,8,-9,2
-8,-12,-11,-4,-9,-6,14,1,2
5,5,0,1,-3,-1,41,13,2
0,5,0,-8,1,-1,22,-16,2
0,0,0,-3,2,4,32,-1,2
5,-5,1,10,5,8,8,26,2
11,16,7,0,-1,-5,-39,3,2
-12,-16,-4,8,3,-3,-18,5,2
-11,-5,-12,0,-6,-5,19,-12,2
4,-19,-1,0,-3,-2,-72,21,2
0,21,-4,12,-6,5,45,23,2
4,5,1,-6,-6,-2,-38,4,2
-2,4,0,-6,-8,-16,-45,-8,2
1,14,2,-12,7,17,25,11,2
-2,-23,-1,2,1,-2,-34,-6,2
2,-5,-5,-8,-8,-11,33,-13,2
5,9,3,3,-2,3,70,8,2
7,0,5,-9,13,3,11,-8,2
-3,14,3,6,-8,3,103,-6,2
5,-14,-11,10,1,4,87,0,2
10,3,6,5,8,21,42,22,2
-11,-10,-5,3,-2,-12,-5,-12,2
5,1,-3,-1,-2,2,-3,9,2
4,21,10,-4,4,1,-1,-7,2
8,7,6,5,5,12,17,16,2
-6,-12,-2,5,-5,-4,4,-9,2
1,2,-2,-9,0,-12,-83,-12,2
-4,15,5,1,2,1,11,-2,2
10,-3,-5,-5,-10,10,50,15,2
-7,-1,1,12,6,1,-10,18,2
-8,-20,-9,2,-12,0,75,0,2
-10,2,3,-10,4,-5,-105,-16,2
8,-1,10,-4,13,14,68,-11,2
-8,-37,-22,3,-16,-11,-22,1,2
-1,14,9,0,5,-3,-37,-19,2
0,-8,-6,10,5,5,59,9,2
0,-5,-8,1,-10,-7,-54,11,2
-8,13,15,5,18,10,63,-31,2
-4,18,4,-15,5,3,-36,-32,2
9,-36,-1,9,6,2,61,11,2
-11,-1,-11,4,-15,-1,42,0,2
13,4,4,4,3,-10,-21,7,2
-2,2,-5,-12,-7,4,-18,5,2
7,28,8,8,5,2,12,3,2
-15,-24,-8,6,1,-5,51,-15,2
5,9,1,6,1,-7,-18,13,2
0,-21,-2,1,-2,8,89,0,2
11,48,10,-9,-4,-9,-108,6,2
-26,-46,-20,-4,-14,-20,29,0,2
4,-5,-2,5,2,20,89,13,2
3,-4,0,5,8,-23,-128,7,2
-15,-23,-9,4,-14,-1,64,-11,2
16,30,14,-3,16,19,22,15,2
-12,-1,-10,-7,-25,-26,-48,1,2
-2,-9,-5,-2,1,23,68,9,2
10,3,2,-3,4,3,-45,5,2
0,22,6,4,7,-4,-64,1,2
-4,-23,-2,-20,8,-4,-38,-35,2
9,-9,-6,-8,-15,-11,8,17,2
-6,2,7,7,8,6,-1,7,2
-2,37,-3,-5,0,-11,-66,-8,2
8,-7,3,10,2,10,13,16,2
5,14,-2,-1,-6,-3,-8,6,2
6,1,3,-12,8,-2,-6,-9,2
-12,-15,-2,10,-7,13,84,-18,2
1,11,-2,0,-5,2,-91,9,2
0,5,1,-2,7,-11,-76,-5,2
-39,-24,-17,-31,-26,-35,-67,-79,2
8,6,6,-2,7,-11,-4,4,2
1,-1,-4,-16,-14,-8,-42,7,2
-1,29,15,22,29,13,31,25,2
13,2,6,-3,5,5,-61,3,2
-6,-19,-7,-25,-13,-26,-128,-7,2
1,-16,-4,-6,3,-2,92,-2,2
-8,4,-4,1,-11,-1,20,0,2
-1,-2,-6,-1,-5,-17,-27,2,2
-9,-10,1,-3,-1,-13,-101,-12,2
2,17,8,7,2,7,89,5,2
-6,7,-10,-4,1,-3,-37,-36,2
-7,-10,-3,10,2,6,45,18,2
12,2,2,4,0,2,-1,21,2
-2,21,1,6,-6,-7,-7,2,2
-20,-44,-3,-10,-2,-13,-37,-50,2
12,27,1,0,-1,10,43,14,2
-17,-39,-2,4,16,-13,-17,-11,2
-9,4,-2,1,-10,14,44,10,2
9,-4,-3,10,-7,15,109,16,2
6,2,2,4,6,6,-42,26,2
6,11,8,2,8,7,34,-1,2
8,6,1,1,6,1,15,-3,2
-6,-6,-3,-14,-8,-34,-123,-5,2
-11,-7,-5,1,-13,10,112,1,2
14,52,5,-3,5,25,58,11,2
-8,-45,-7,-3,1,-6,20,-19,2
-5,7,-4,2,-12,-15,-59,-4,2
1,-14,1,0,5,10,103,17,2
-4,9,2,-6,-1,-6,-127,-18,2
0,11,1,-4,0,11,96,13,2
-1,-6,0,6,5,-8,43,-12,2
-4,4,-5,-2,-10,-3,65,-9,2
6,-4,0,0,2,6,-45,11,2
0,-11,-5,-7,-3,-3,-16,-1,2
9,18,7,4,5,11,13,16,2
-3,-9,4,3,6,0,-62,0,2
4,7,-2,6,-4,-7,5,-1,2
11,37,11,-3,5,2,4,0,2
-7,-36,-3,0,-3,3,-46,10,2
9,-3,-4,13,4,6,47,20,2
2,-14,-6,1,1,8,55,-15,2
-4,-3,-3,18,2,5,-26,1,2
18,53,6,-22,-7,9,67,-11,2
3,10,16,4,18,7,34,1,2
-17,-34,-13,3,-12,-6,119,2,2
4,0,4,3,10,0,57,-9,2
6,0,0,1,2,18,91,11,2
-3,0,-6,6,-7,-9,-36,-3,2
0,15,7,-5,4,4,21,-10,2
3,-8,-1,-17,0,2,-101,-1,2
-3,0,1,3,0,0,17,19,2
7,7,-6,-4,-15,0,-4,-3,2
0,-2,10,20,24,16,-7,15,2
-8,-10,-5,-8,-5,-6,-21,7,2
17,13,13,14,12,26,125,17,2
-25,-28,-26,5,-25,-10,61,0,2
10,24,-3,-1,-4,3,14,2,2
-3,-5,3,-4,-2,-5,-6,6,2
-7,-18,-8,-1,-4,-11,-45,-13,2
-1,-16,2,-7,4,-9,-58,-23,2
-3,0,-2,-10,-8,-13,-17,7,2
14,11,-5,1,-10,6,24,16,2
-26,-8,-4,9,-1,-8,75,-14,2
12,12,13,-2,12,4,-102,8,2
-6,-15,-10,6,-19,-2,95,6,2
-9,21,4,3,0,-9,-62,-30,2
-4,-37,-15,-18,-10,-6,-128,3,2
17,23,6,-7,6,11,57,15,2
9,14,16,10,20,12,24,7,2
-5,-12,-11,-8,-15,-23,-73,8,2
-5,1,-2,14,0,1,63,9,2
-15,-8,-3,-11,-6,-22,-3,-16,2
0,-8,-5,-2,-10,-4,-9,1,2
8,12,4,0,10,10,87,-4,2
2,18,0,-3,-3,-4,-29,7,2
-5,3,-2,-10,1,-6,-86,-3,2
-10,-27,-1,-6,-4,-9,27,-13,2
-10,-11,-6,1,-2,-11,-86,-3,2
-2,0,-5,-7,-8,-7,63,-27,2
9,2,5,10,5,9,4,9,2
-9,25,-4,-14,-12,-14,-115,-21,2
-9,-42,-6,6,1,8,74,2,2
-1,1,-3,-5,-1,-13,-80,-14,2
-2,-2,3,-12,3,-4,-61,-13,2
-12,-11,-8,7,-10,1,7,-14,2
3,12,4,-8,5,6,26,-10,2
4,-16,-1,7,3,-5,6,10,2
2,20,1,-8,0,-2,-35,2,2
11,-1,-1,-6,2,6,63,2,2
-4,12,5,24,8,7,56,16,2
1,-3,1,-14,0,4,-16,-24,2
12,2,3,0,3,-1,4,13,2
5,-2,3,-7,5,-4,6,18,2
-3,0,-8,-4,-7,0,-29,-2,2
0,25,8,1,8,4,-17,6,2
1,-17,-16,2,-11,0,28,8,2
0,1,1,-2,-1,-6,29,-8,2
7,23,7,1,3,-6,62,1,2
1,-19,-6,4,4,1,-30,11,2
-16,-24,-6,1,-9,3,26,-12,2
23,13,6,7,11,14,24,38,2
-12,-13,-3,2,-8,-17,-64,10,2
0,11,5,9,4,15,127,19,2
-16,-15,-15,-10,-13,-22,-78,-17,2
-3,-10,-2,2,0,-3,22,-7,2
7,-1,0,-2,-3,9,5,-3,2
1,-3,2,-2,3,-5,-41,5,2
-5,11,6,9,7,2,-8,5,2
-16,-16,-4,-19,-4,-12,-78,-26,2
3,-5,-6,-6,-1,-1,-5,-5,2
1,0,5,2,4,6,61,-4,2
-7,-9,-2,-1,-1,-1,8,-18,2
19,35,5,-9,5,-1,-87,-2,2
-20,-21,-5,-2,-10,-18,43,-30,2
2,-16,-13,4,-3,15,-11,16,2
10,9,6,9,7,7,34,14,2
-6,4,-4,0,-11,-5,1,0,2
11,-7,8,-6,10,7,-42,12,2
2,4,-3,-6,-2,-6,9,-6,2
-7,-7,-3,5,-2,-3,60,-10,2
-1,-6,0,-1,1,4,-7,0,2
8,14,3,8,3,6,26,2,2
-6,-11,-1,10,0,-5,50,9,2
9,7,1,9,1,13,12,9,2
-9,-13,-5,17,-2,-9,-80,-10,2
-4,21,4,-10,3,0,80,-7,2
3,-6,-2,-6,1,7,-51,-3,2
1,0,-2,-7,-3,1,30,-5,2
-1,-6,-3,-9,-5,2,96,4,2
-4,4,-3,5,-7,-8,-77,0,2
-1,-3,5,-2,10,1,11,-5,2
2,-1,-1,-10,-1,-4,-43,-4,2
-2,-4,1,6,0,2,-5,5,2
7,23,3,-12,1,0,-61,2,2
-15,-26,-11,-1,-16,-15,25,-14,2
3,2,1,7,1,6,28,7,2
2,-9,1,-5,2,4,-23,6,2
13,0,8,3,7,-1,61,8,2
-2,37,-7,-12,-10,3,-66,5,2
-5,-3,2,0,-1,-2,62,-13,2
-8,-7,-4,1,0,-3,-36,-13,2
-4,14,1,-1,-1,7,62,2,2
6,5,5,-5,0,-10,-14,7,2
0,-23,-2,-10,0,-3,-41,16,2
7,8,-2,-3,-4,-6,5,6,2
-9,-26,-16,10,-12,2,78,-6,2
15,26,14,-8,14,3,-74,10,2
-7,14,-1,4,-12,0,114,-1,2
7,-5,1,-12,6,7,30,1,2
1,7,0,-6,0,-13,-128,0,2
-5,-2,0,0,-4,-11,-19,4,2
-2,-1,-4,-8,-5,-6,-101,-2,2
-7,-8,-1,1,-5,7,88,-9,2
3,-3,-9,-2,-9,2,17,8,2
5,-1,9,2,14,9,7,-10,2
12,26,6,5,10,4,5,-9,2
-10,-10,-5,6,-6,-18,-55,3,2
-8,-11,-4,-9,-2,10,-9,-3,2
7,-5,0,5,-2,-10,-68,-12,2
-16,-5,-8,-10,-8,-2,-37,12,2
6,9,3,14,7,8,91,14,2
-7,-16,-3,-20,-3,-14,-106,-17,2
-8,0,3,1,0,2,-15,-4,2
4,-1,3,0,7,10,47,-16,2
-22,-17,-11,11,-12,-11,59,8,2
-3,-5,1,0,5,-2,20,-1,2
13,10,4,10,5,11,51,15,2
-15,-12,-9,-23,-18,-37,-95,-9,2
3,1,2,-6,3,11,39,-3,2
4,5,3,3,1,0,39,2,2
-6,-8,-7,21,-6,-1,25,4,2
3,-4,3,-3,-3,-14,-36,-15,2
3,-1,-3,-19,2,0,-119,0,2
1,0,3,-16,6,-7,-37,-17,2
-22,-20,-16,-11,-28,-6,115,-7,2
10,25,7,14,10,14,0,12,2
4,-9,-1,3,-3,-1,60,-2,2
6,-14,1,13,8,5,-40,7,2
4,11,4,-10,7,0,-60,-11,2
1,-11,-6,-18,-7,-6,1,-14,2
15,22,10,3,6,13,69,25,2
-17,-1,0,-3,-10,-14,-59,-18,2
15,8,-2,12,12,5,-25,7,2
-14,-25,-5,1,-12,0,120,21,2
-4,-32,-5,12,3,-6,-36,-8,2
-37,-13,-4,-18,0,5,25,-14,2
14,2,-4,-17,-27,-40,0,-55,2
-5,18,12,27,26,28,60,46,2
-3,2,-6,-6,-8,3,-7,-15,2
9,7,-4,0,-9,4,31,13,2
-13,23,17,23,17,7,-15,46,2
44,-15,0,-4,14,7,-64,-19,2
10,4,-2,-9,-8,-4,62,-9,2
29,7,2,-2,1,5,-56,9,2
-3,5,-5,-17,-9,-1,15,5,2
-4,-18,6,6,3,-3,20,2,2
0,56,12,12,26,10,50,-13,2
-5,-44,-18,20,-13,4,85,2,2
0,-8,-3,-4,-5,10,11,0,2
-25,-15,-9,9,-4,0,12,-14,2
10,-3,4,2,5,18,57,-7,2
-22,9,2,-11,4,-26,-51,-15,2
-2,-7,0,-9,0,-2,84,-10,2
0,4,3,-2,-2,5,25,8,2
10,17,0,-7,-4,0,-69,7,2
5,-9,-3,11,3,-4,127,10,2
-21,-27,-11,-9,-13,-9,-43,12,2
3,11,0,23,5,-2,-43,-1,2
-6,-3,-1,-17,-4,-23,-67,2,2
8,12,2,5,4,10,-13,16,2
-7,-15,-1,0,5,3,22,-10,2
2,29,0,6,-5,5,127,5,2
-22,-36,-8,6,-10,-10,-28,-9,2
9,5,6,3,7,4,-64,17,2
4,23,2,-15,-3,-4,-62,-32,2
19,-19,5,-14,14,7,-69,7,2
-8,13,0,13,-4,10,85,8,2
4,-17,-4,6,-2,5,83,8,2
4,-9,-3,5,-3,-3,23,3,2
4,9,4,-11,5,-1,-50,-2,2
-1,3,0,-5,-4,5,35,-5,2
2,6,0,-5,0,3,43,-2,2
-1,-1,1,13,6,3,-10,0,2
-8,5,-3,-6,-5,-8,-49,-1,2
-7,-14,-6,-8,-10,-11,-21,-6,2
3,13,3,3,7,7,-16,3,2
-9,-14,-8,-22,-5,-17,-29,-14,2
-7,-1,-7,-1,-11,-2,-17,-2,2
3,-4,0,-1,3,-8,-30,-2,2
-4,4,3,-3,-9,-9,27,-19,2
1,0,-2,5,4,14,32,13,2
-3,11,-5,5,0,-3,20,-15,2
-5,-7,1,-3,1,-6,-30,-7,2
4,-1,-5,8,-2,2,9,4,2
-2,1,5,-1,-40,-13,48,6,2
-3,6,-2,-4,20,4,10,-7,2
9,12,6,16,19,19,3,9,2
1,-4,2,4,13,7,2,6,2
16,42,5,8,2,8,22,22,2
-8,-32,-7,3,-15,-10,35,0,2
-8,3,-6,-4,-23,-13,55,-6,2
-2,-3,-3,3,-3,2,30,-1,2
5,4,3,0,9,-4,-95,9,2
7,6,3,-1,-5,1,61,9,2
1,-4,5,0,9,12,33,12,2
0,1,-6,-2,-1,3,-57,5,2
-24,-32,-6,-1,8,5,25,-10,2
8,44,3,-12,-4,-6,39,-6,2
-1,-23,-4,-3,-3,-12,-121,1,2
7,32,12,-1,-2,0,49,12,2
1,-40,-9,-1,9,1,51,-9,2
-3,11,0,10,-3,3,-3,15,2
-7,-10,-5,-10,-6,-7,-26,-3,2
1,-2,-1,-2,-6,-4,-13,-16,2
7,15,5,1,12,7,-9,5,2
-1,-9,0,-3,-4,-3,11,0,2
6,4,1,-2,1,-3,-26,-3,2
-9,25,8,-4,-4,-5,18,-8,2
-11,-43,-26,2,-16,-20,-72,-28,2
0,-5,-2,-7,0,3,4,6,2
4,-6,4,-8,4,3,-7,5,2
-10,-13,-9,4,-3,-6,10,-5,2
7,23,13,3,1,7,77,7,2
-2,-12,-11,6,-6,0,82,-5,2
-2,5,-4,-1,-3,-9,-70,-8,2
13,1,4,6,9,7,71,12,2
-6,13,5,1,-4,11,93,4,2
-3,-31,-3,15,6,-6,-18,15,2
-9,0,-3,-17,-10,-4,-69,-15,2
9,-10,-5,-1,-1,2,-64,6,2
-11,9,1,1,0,-6,-18,-2,2
3,11,6,-10,7,-4,-98,-8,2
10,15,-1,0,-3,7,67,14,2
-21,-29,-8,1,-3,0,-70,-13,2
10,3,0,2,8,4,-8,11,2
-1,12,-1,-13,-8,-5,-25,-9,2
-6,-12,-8,12,2,-1,48,12,2
5,-3,2,-7,1,0,-13,-18,2
6,29,11,6,6,5,3,1,2
-13,-50,-16,-8,-5,-2,31,1,2
-6,-3,-2,-1,-5,-6,-12,1,2
6,-11,-5,-13,-12,-9,18,-1,2
4,-2,2,3,11,7,-42,-6,2
13,17,7,-8,6,10,-11,-9,2
-1,8,-1,-15,-6,-7,-37,-3,2
-12,-16,-4,0,-7,-4,-29,-2,2
0,-6,-2,4,-4,-2,-19,6,2
-13,-3,-7,-10,-5,-6,-90,-15,2
34,6,9,-1,11,10,42,-15,2
10,3,-4,-2,-1,-1,-20,-3,2
13,-1,-2,-14,2,7,8,-39,2
-17,-1,-2,-2,0,-12,-32,-36,2
-8,-2,-3,-5,-3,5,94,-16,2
11,7,4,15,-4,-1,62,46,2
7,8,0,6,-12,-10,43,-6,2
9,-21,3,-13,3,3,-64,3,2
-21,11,-6,8,2,-9,2,5,2
-21,-2,-1,-2,1,-6,-79,-6,2
-14,-16,-2,-15,-8,-2,-12,8,2
5,1,3,21,0,4,74,24,2
-4,22,3,4,0,0,-31,19,2
6,7,-2,-3,0,-4,26,-13,2
2,5,1,25,2,-4,32,23,2
-9,11,-1,4,-3,-7,-63,-19,2
4,-10,5,3,8,5,17,2,2
7,5,0,5,-5,9,44,7,2
4,35,-2,-5,-2,-6,-39,-7,2
-6,-27,-16,-12,-16,-8,93,3,2
2,-9,0,19,-1,-10,-21,1,2
-4,6,8,-4,11,4,13,9,2
-12,-16,-4,-14,2,4,-46,-37,2
7,13,4,-9,-7,-2,4,-9,2
-15,-6,-4,-9,-5,-13,-79,-17,2
0,-2,0,-6,-1,-8,-4,-19,2
-4,-4,4,1,6,-1,10,10,2
-1,17,6,2,-2,4,13,3,2
3,-17,-6,-3,-3,-1,3,-6,2
6,-1,1,1,-3,4,85,13,2
6,16,2,-4,6,15,88,-2,2
-22,-23,-8,5,-6,-9,-11,2,2
-7,-3,-2,5,4,15,77,9,2
6,0,5,-8,1,-6,0,-12,2
-8,-10,-9,-7,0,4,-36,-3,2
36,26,11,-20,-3,-3,-44,-17,2
9,4,-5,12,13,8,26,-23,2
-7,-22,-5,-34,-7,-12,-94,-12,2
-5,-28,-1,-2,4,-2,80,-4,2
7,17,0,-13,1,1,2,13,2
-1,3,2,-6,-8,-8,-56,14,2
-13,1,-6,-4,-9,-10,-22,-21,2
5,-2,0,-7,-4,-6,-39,13,2
-3,0,2,6,6,7,7,6,2
3,2,4,7,2,5,-8,-4,2
-17,-3,-6,-6,-1,-9,-93,-21,2
-8,-7,-3,-6,-8,-7,-28,-12,2
-6,-3,-2,9,3,4,-12,3,2
-4,-7,-2,1,-5,4,29,4,2
-2,5,0,5,-2,2,101,-12,2
8,6,3,5,-3,-6,25,8,2
-1,10,4,9,4,0,50,0,2
-3,-46,-18,-12,-3,-1,16,7,2
8,5,-3,-1,4,7,4,3,2
-8,-12,-8,-6,-3,0,-32,17,2
7,11,8,22,12,10,13,7,2
-2,11,2,-15,-10,-9,-70,-1,2
8,15,6,12,10,13,43,16,2
-10,-7,0,8,-2,-9,-89,-7,2
-1,-2,-2,4,1,7,27,8,2
1,-3,0,-13,-8,-7,-2,-3,2
-1,-2,-4,-10,-2,-5,-93,6,2
5,7,3,3,-4,-1,22,16,2
-3,-5,0,1,6,-5,-51,7,2
3,10,2,4,2,11,67,10,2
-4,3,0,6,-9,0,72,6,2
3,3,1,-2,-2,3,59,-11,2
-12,-21,-7,5,-4,-3,1,3,2
-3,5,-1,-10,-1,-5,-65,-21,2
-1,-6,-6,11,6,-2,-21,3,2
-20,-7,-4,-7,-3,-6,-12,-7,2
0,-2,-3,-2,-5,6,66,-1,2
-1,7,7,5,1,-4,26,-8,2
-3,-1,-3,1,-3,0,-5,12,2
0,8,-2,7,4,5,25,-2,2
-10,-3,0,-16,-4,-13,-86,-11,2
-3,-15,-6,6,-4,3,110,19,2
3,3,2,13,4,6,21,4,2
17,7,3,11,1,-2,-1,19,2
-9,1,-3,5,-5,2,36,-5,2
7,-6,1,6,-2,1,3,10,2
-2,-1,1,4,6,0,-16,-10,2
5,-2,-1,1,2,3,4,10,2
0,-1,3,-2,-1,6,49,-9,2
-3,5,-11,-5,-8,-6,65,5,2
12,16,7,12,-3,4,6,10,2
-14,-23,-9,-14,-6,-14,-102,-14,2
10,7,-1,1,-2,4,100,23,2
0,8,11,13,9,2,-24,11,2
-9,7,-4,-7,-4,0,33,-17,2
1,-20,-2,-6,2,4,2,14,2
0,-3,1,1,-1,-4,-5,-22,2
-9,2,-1,-1,3,-6,-96,-16,2
-9,-15,-5,-18,-12,-19,-64,-8,2
-3,2,2,12,2,-2,-23,7,2
5,3,-3,-7,-6,-4,-29,-6,2
-4,-6,-4,2,-10,-6,-17,-4,2
3,5,4,-1,7,4,-8,-6,2
-4,8,-2,-8,1,2,12,2,2
-4,6,10,10,-1,-5,11,27,2
-12,-15,-14,-14,-4,-3,6,-39,2
-13,-20,-5,5,-6,-13,-47,4,2
6,12,4,4,4,13,29,2,2
4,-3,-4,-9,-5,-6,41,5,2
1,10,5,11,0,2,54,1,2
0,-1,1,-5,1,12,86,2,2
7,5,2,9,4,1,-44,-2,2
-5,3,-2,19,0,2,98,1,2
1,-2,13,-12,3,-12,-127,-3,2
5,5,-5,-1,-4,11,37,-3,2
3,18,14,7,-1,-6,-10,-1,2
-7,-34,-26,-12,-4,6,15,1,2
-1,-4,-12,9,3,-2,-5,5,2
6,-13,2,1,7,6,-22,10,2
-10,-12,-4,-1,-9,-15,-23,-19,2
13,23,19,-13,0,0,-19,1,2
-10,-24,-4,-1,-3,2,15,13,2
0,-7,0,2,5,1,3,4,2
3,-15,-5,-12,0,8,22,8,2
2,6,7,23,9,-7,-36,7,2
3,18,5,-14,-2,2,53,3,2
-7,4,-5,5,-9,-6,73,-9,2
13,10,3,-2,-1,-4,28,0,2
-4,-18,-6,-7,-1,-1,31,-3,2
-2,1,-4,-2,-7,-8,-54,5,2
-7,5,1,-5,1,-4,-31,-3,2
-1,-3,-6,-7,-7,-2,-2,0,2
-5,-1,-2,2,0,0,-8,-8,2
5,8,2,-4,3,2,21,-4,2
-2,-9,-1,-3,-6,-9,-1,1,2
0,0,-6,-7,-5,1,23,8,2
-6,12,5,7,6,-1,-41,-7,2
6,6,8,2,2,3,19,11,2
4,-37,-6,-1,-2,3,40,-14,2
-3,-5,-5,-17,-4,-4,-56,11,2
5,10,1,14,7,12,49,-7,2
-2,2,-2,5,-5,0,115,6,2
6,18,5,-1,4,4,-39,1,2
0,1,4,-8,6,-12,-18,-19,2
-1,-8,-6,-34,-14,-9,-71,-16,2
3,-5,1,15,5,12,42,5,2
2,7,-3,-3,-4,0,37,5,2
-6,-7,-3,18,-2,2,69,0,2
13,12,8,-1,11,6,-30,-2,2
-4,-6,-4,-13,-6,-11,-43,6,2
-6,17,-1,5,-1,1,11,1,2
6,-18,-7,2,5,11,106,4,2
-11,-22,-4,4,-3,-1,-32,3,2
5,10,5,1,2,-2,-23,6,2
1,-5,-8,0,-1,0,13,-6,2
4,21,7,-3,0,4,-29,-2,2
9,-4,-8,-8,-4,1,15,12,2
1,2,-1,13,0,3,74,9,2
-13,8,2,4,-4,-13,-6,-6,2
0,-9,2,8,6,6,106,-7,2
-9,-3,-8,-7,-10,-11,-27,-7,2
-8,1,-2,-5,-1,-3,-1,-12,2
7,3,5,2,2,6,-7,19,2
4,3,2,13,5,18,71,8,2
-7,-7,-8,-21,-16,-14,26,-6,2
7,11,1,4,8,7,24,-4,2
3,2,2,-2,1,-4,50,1,2
-15,-4,-9,-5,-15,-5,35,-5,2
5,-9,2,-2,6,5,-20,4,2
-6,-8,-4,-5,-6,-2,-40,-13,2
11,-1,-1,6,9,2,-54,3,2
-1,0,1,-4,-1,-10,-51,4,2
-1,2,1,13,-1,-1,-2,-7,2
-2,6,2,-4,-4,-4,-30,-3,2
-11,-8,3,3,4,-2,16,1,2
-1,-5,-2,1,-1,6,26,-3,2
3,8,1,7,-2,-1,50,9,2
4,-11,-2,-16,-1,-16,-128,-1,2
0,4,-3,-6,-4,3,81,-4,2
-6,5,0,-11,-1,-19,-56,-18,2
4,-1,-1,-10,-2,-1,-41,13,2
-9,-14,-9,-3,-12,-7,70,-3,2
5,22,2,-7,-6,0,-7,14,2
-1,-13,-3,-2,1,-3,3,-4,2
6,26,13,-3,9,11,28,-8,2
-3,-36,-12,-8,2,-9,-61,2,2
-4,-9,-1,2,-7,2,94,1,2
-3,-3,-3,-17,-7,-18,-100,-12,2
7,23,15,11,5,5,72,3,2
-3,1,-7,-8,-1,8,8,-5,2
0,-6,-3,-7,-2,-7,-85,-6,2
6,5,-3,1,4,8,-32,15,2
-14,23,-1,-2,-6,-37,-68,-10,2
-5,-25,-3,-11,-2,15,76,-3,2
-2,-12,-3,-6,-4,-6,-128,-6,2
7,15,8,12,3,11,19,4,2
-6,-28,-22,-21,-10,-8,-19,-5,2
16,42,16,19,16,14,20,3,2
-5,-12,-4,-12,1,-5,-17,-13,2
-7,-5,-2,-3,-2,-1,2,-2,2
0,-9,0,-2,0,1,-26,3,2
-2,6,1,4,-5,-8,-28,-8,2
0,-4,-3,3,-1,6,34,-1,2
-1,13,2,-9,-3,-7,-81,5,2
-5,-13,-2,15,7,6,24,-6,2
-3,3,-1,-2,-3,-4,63,-1,2
4,5,5,8,4,2,30,2,2
1,-7,-1,6,1,5,60,10,2
-3,-6,-3,-4,-4,-10,-51,-6,2
-11,-9,-3,-5,-5,-23,-83,-13,2
3,11,4,-5,1,10,57,8,2
-7,-5,-4,6,-5,-2,26,0,2
5,-8,-1,10,0,10,18,18,2
10,11,-2,13,5,15,77,27,2
-10,-11,-4,-5,-5,-17,-126,3,2
-5,-1,-4,-4,-2,-5,83,-14,2
5,2,4,3,5,14,56,-1,2
3,11,4,2,0,-1,-8,-5,2
-1,0,5,-1,0,5,101,-4,2
3,-7,-4,17,1,4,58,0,2
-3,-14,-10,-16,-7,-7,2,-2,2
0,-3,0,-3,2,3,24,-14,2
0,2,2,2,-1,3,-1,-7,2
-4,0,5,-11,4,-6,-90,1,2
0,19,4,-7,-4,0,43,-11,2
3,-1,-3,2,-3,12,31,12,2
2,-4,-3,-2,5,2,-21,-2,2
4,1,1,4,7,5,-4,17,2
-13,-8,0,-9,-1,3,37,-31,2
10,0,-2,-11,-4,-4,-15,-5,2
-6,-11,-3,5,-5,-6,33,-11,2
1,0,-1,-12,-1,6,28,3,2
11,3,6,6,6,7,62,9,2
-7,0,1,7,1,-11,-49,-7,2
0,1,-3,-6,-3,8,10,8,2
4,14,7,-3,-2,-5,-28,-10,2
1,-31,-16,-2,1,6,0,19,2
-2,7,3,12,5,0,-40,-10,2
-7,12,3,2,5,-9,-37,-11,2
-6,-11,-9,0,-8,1,112,6,2
4,4,4,13,4,5,-17,5,2
7,13,4,-12,-6,-2,-18,8,2
-7,-5,-4,10,2,-3,-28,3,2
-1,-2,0,0,0,1,-54,-1,2
1,9,2,0,-3,-8,20,3,2
-7,-7,1,23,6,13,86,-13,2
5,14,4,3,-3,-2,10,10,2
-4,-5,-3,-10,-6,-5,61,1,2
3,1,-2,13,-4,4,9,17,2
7,3,2,8,2,4,-36,14,2
3,-1,0,9,10,1,-36,-10,2
-2,-6,-3,5,0,-1,-7,3,2
0,6,6,2,5,6,60,3,2
1,-9,-2,-5,-2,-19,-28,15,2
-2,-6,-5,-6,-7,18,118,-2,2
-6,-6,-8,-14,-11,-24,-106,-6,2
-3,13,9,5,6,3,55,-17,2
-2,-6,-6,-7,1,9,87,3,2
2,-4,-4,9,-1,0,38,7,2
0,4,3,-2,2,7,19,-6,2
-1,-7,-7,-6,-5,-6,-73,1,2
5,19,6,-9,-1,-1,-3,-4,2
6,-17,1,-6,4,2,-24,21,2
-5,13,2,7,0,1,-43,-12,2
-12,-12,-13,-8,-4,-14,-98,-5,2
0,10,3,-2,2,4,-2,1,2
0,15,6,-13,-3,-1,-11,-8,2
5,-4,0,6,5,3,13,-6,2
3,-12,1,2,4,9,65,10,2
-8,-7,-8,-10,-12,-12,39,6,2
-1,11,1,-2,-2,-2,29,-5,2
1,-11,0,4,2,5,73,3,2
-4,7,-2,-15,-6,-10,-79,-14,2
-1,-9,-3,-9,-2,1,-32,-7,2
2,-4,1,0,5,-8,-57,1,2
7,9,4,-4,1,5,24,-9,2
-1,-8,-1,9,3,10,80,8,2
-6,-3,-3,6,-7,-4,-10,15,2
3,2,-2,-2,-2,-3,-67,5,2
-3,-15,-3,-13,3,1,-12,12,2
5,25,10,3,2,-5,-41,-15,2
-4,-1,5,-3,1,-3,1,4,2
-6,-42,-15,-10,-7,-8,-7,-24,2
3,5,0,20,4,11,15,9,2
-1,-11,-7,-10,-10,-8,-47,6,2
0,2,1,-5,-3,-3,-2,-5,2
9,26,9,7,1,5,8,18,2
-5,-24,-6,-23,-4,-4,-42,0,2
0,-1,3,8,2,11,47,19,2
-16,-9,-8,-21,-10,-34,-76,-23,2
1,2,-4,0,-7,9,47,13,2
3,1,3,-10,0,-7,-67,-25,2
1,1,-4,3,0,6,33,4,2
16,-5,-1,-1,7,14,91,6,2
-19,-11,-2,-5,-5,-5,36,7,2
-3,0,-2,1,0,-15,-58,0,2
-1,4,1,-6,-2,-3,58,-12,2
10,-9,-3,3,-1,5,1,7,2
1,11,-1,-10,-5,-8,-33,-7,2
-3,-5,-3,13,0,11,106,1,2
1,9,-2,0,-1,-7,-52,4,2
2,-1,3,18,4,7,-25,6,2
-1,1,2,0,3,-1,3,-28,2
1,4,1,-2,-2,-4,-23,14,2
2,-4,-1,-3,0,-3,-43,-1,2
-7,-3,-2,-12,-2,0,-57,-5,2
-8,-12,-5,0,-1,-9,-17,-7,2
0,8,-1,0,0,1,3,-1,2
1,-3,-1,-16,-6,-6,21,2,2
-10,-3,-3,-7,0,-7,-78,-3,2
7,2,4,3,4,7,73,12,2
0,-2,-4,-10,0,2,-71,-1,2
-11,-6,-6,-9,-9,-10,-23,-6,2
-1,0,-1,3,1,8,31,-20,2
2,-1,-2,2,-3,-4,-21,2,2
6,6,0,-10,-12,-4,48,15,2
3,19,10,15,10,2,-15,4,2
-6,-28,-8,4,-2,-4,0,11,2
-5,-27,1,-9,0,1,-6,-7,2
-4,23,1,3,-1,0,-5,-10,2
5,-5,-2,5,-1,2,27,-1,2
3,9,5,5,0,5,68,-5,2
6,36,0,-3,0,0,38,13,2
-6,-21,-5,-12,-3,-6,-22,-22,2
-9,3,-4,-3,-3,-9,-64,-17,2
7,18,3,3,5,7,25,-5,2
-5,-20,-2,-2,-2,-9,41,4,2
7,20,7,4,6,10,74,4,2
-10,-15,-8,-23,-7,-12,-115,-12,2
2,20,5,1,-4,3,13,-2,2
6,-10,-6,-2,8,12,31,3,2
-19,-23,-6,9,-4,-20,-103,-14,2
3,10,-1,3,-1,5,58,13,2
-2,0,-1,0,-1,0,26,8,2
3,14,6,-5,1,1,-52,-7,2
1,-10,-2,-11,-1,3,65,8,2
-4,-12,-4,-5,-3,-7,-3,-6,2
-1,-3,-3,-11,1,6,-11,0,2
-1,6,3,7,3,-10,-31,-13,2
2,2,6,11,1,1,65,6,2
-1,-12,-8,11,-3,15,118,18,2
-6,-17,-6,-7,-5,-1,11,8,2
-8,-10,0,1,1,-6,-44,-5,2
4,10,1,-11,-5,-2,-12,-4,2
9,8,6,5,7,4,-13,-13,2
-6,-16,-3,8,-5,-4,18,9,2
-5,14,3,-7,1,-1,-38,-17,2
-6,-12,-8,10,-2,-6,36,-2,2
0,-18,-3,-5,-1,5,39,5,2
10,4,-1,-3,-3,-2,-67,5,2
12,1,6,9,7,11,80,5,2
-1,9,5,-11,-4,-9,-83,1,2
-2,-3,-2,-8,-2,1,-21,-12,2
-10,-19,-1,7,1,4,76,-9,2
5,5,1,-5,-5,-6,-97,8,2
1,0,0,12,0,5,89,9,2
1,-5,-1,-2,4,2,-50,3,2
6,43,11,-3,0,2,87,-8,2
-19,-43,-17,-21,-13,-11,-34,-15,2
-4,4,5,27,4,4,43,3,2
5,-15,-15,-12,-7,-3,-16,5,2
1,3,1,3,4,-5,17,1,2
-3,12,-1,17,-2,5,63,-3,2
6,2,1,-9,1,-2,-45,7,2
0,4,6,4,2,-1,7,1,2
-10,-13,-5,-18,-4,-9,-55,-11,2
5,16,-5,-4,-7,7,38,9,2
7,7,-1,-7,2,4,1,-3,2
-3,12,5,10,-1,-6,-3,9,2
1,-6,-3,-2,-2,-7,-75,-1,2
0,-5,1,3,1,9,52,5,2
-5,-8,-5,-9,-2,-1,-54,2,2
-4,11,4,-14,-3,-10,-80,-9,2
6,-17,2,7,4,4,9,10,2
-1,-2,3,7,4,-1,-10,3,2
0,7,-1,-35,-2,0,-14,-27,2
-21,-18,-10,8,-16,-13,73,1,2
1,7,3,6,-1,8,4,6,2
19,41,3,-1,-2,0,-31,17,2
1,-28,-5,2,2,-7,13,-1,2
5,4,4,-15,5,-3,-52,-4,2
-2,4,-1,-3,-5,-2,51,-5,2
3,-1,-1,6,-1,2,71,5,2
-1,9,5,-2,-2,-1,-30,0,2
7,5,3,-2,5,3,3,1,2
-2,0,-5,1,3,1,8,9,2
-3,-2,3,5,4,-1,-37,-6,2
-2,2,-3,1,-4,2,17,1,2
-1,-5,-1,8,1,2,46,-3,2
9,6,1,-4,5,10,40,-2,2
-7,-9,-3,-7,-6,-25,-78,2,2
-17,-3,-6,-14,-14,-4,-26,-21,2
4,-3,0,19,6,15,97,13,2
-4,-2,-4,12,-4,-4,21,-2,2
3,-3,2,11,6,4,18,13,2
-5,2,1,8,5,3,44,-7,2
2,-5,-3,10,-2,-1,-20,9,2
5,16,2,4,0,3,-12,0,2
-6,-21,-2,2,-2,-1,14,3,2
2,-4,3,15,2,4,33,7,2
3,40,5,-8,-4,-2,-43,-17,2
4,-26,-3,1,6,0,-32,5,2
3,4,3,7,1,10,89,-10,2
-15,-36,-12,-3,-6,-1,19,0,2
-8,-17,-7,-2,-3,-4,-47,3,2
-4,15,0,-10,-6,-6,-26,0,2
8,5,7,-11,7,0,-63,-29,2
-12,6,1,5,-2,-16,-54,-9,2
6,-5,1,-2,4,26,85,9,2
-5,-3,-1,4,-7,3,107,3,2
-6,-9,-5,1,-1,3,8,-6,2
10,15,3,13,8,7,4,14,2
-6,5,5,-12,2,-11,-62,-19,2
7,-1,-1,-10,1,0,-35,6,2
6,10,1,0,3,4,71,14,2
-4,5,-4,11,-11,-8,66,6,2
-4,-9,-2,-7,-2,-11,-21,0,2
0,1,0,-12,-3,3,-10,-4,2
-7,-23,-6,-4,-5,-3,-31,-4,2
11,11,5,-7,8,5,-14,-4,2
-1,7,1,5,-3,-10,-26,-7,2
-7,-19,-4,-7,-1,-8,-29,-3,2
-4,3,-3,-8,-5,-1,-32,-9,2
9,12,7,-11,-3,0,-31,-9,2
4,-5,-7,-8,0,-1,-2,3,2
-11,-12,1,-9,-5,-2,16,-9,2
-8,-29,-7,1,-2,-3,-40,-13,2
8,1,2,-3,3,9,14,8,2
-10,8,-1,0,-4,-10,-22,-11,2
-7,1,-1,-8,0,-11,-67,-7,2
-12,9,-1,-29,-16,-14,38,-7,2
0,-11,-9,-1,-3,13,-16,4,2
9,1,2,0,3,-4,-39,-5,2
-4,-8,-4,1,-2,-7,2,-4,2
0,21,0,-13,-2,-3,-8,-3,2
0,11,0,-11,1,-3,-47,0,2
0,-18,4,6,8,-1,-22,10,2
-7,-8,-5,-23,-10,-19,-84,-11,2
5,20,-3,5,-4,7,10,13,2
-1,-20,-1,4,2,0,12,0,2
4,10,-1,1,0,7,27,12,2
3,16,7,12,4,1,-15,0,2
2,-8,-6,-13,-3,-3,-15,-3,2
-3,-15,-2,-2,-1,-3,4,5,2
-2,-5,1,-6,1,2,10,4,2
-12,4,-3,4,-2,-4,9,-4,2
-1,-13,-8,-5,-7,-1,58,2,2
-6,16,5,25,2,-10,-71,-7,2
1,-4,-4,-7,-2,7,79,2,2
9,5,3,-5,3,6,-7,10,2
4,-1,3,-3,2,-1,-93,9,2
-9,2,-3,-10,-8,-5,61,-11,2
-7,-9,-4,-7,-8,2,-95,-13,2
9,13,3,13,5,5,-12,7,2
2,-6,1,4,6,6,10,21,2
-7,-5,-3,-6,-3,-10,-14,-8,2
1,-2,1,-1,2,3,47,6,2
0,-5,-6,-5,-1,1,10,3,2
4,2,4,2,8,5,-25,6,2
3,2,3,-6,7,8,18,8,2
-9,-3,-7,-29,-19,-19,-32,-11,2
3,10,4,14,6,7,6,4,2
3,-18,-3,3,3,1,28,-2,2
2,11,-1,4,-2,-2,-2,0,2
4,-10,1,-4,4,3,22,2,2
2,21,-1,-4,-8,-8,73,-12,2
-13,-8,-4,8,-6,-6,41,6,2
3,-3,-2,-5,-4,8,118,2,2
-4,7,5,19,6,-3,-29,-11,2
0,-10,-3,-4,2,9,94,5,2
-1,5,1,11,-1,2,5,-7,2
-5,-7,-8,-19,-9,-17,-91,-23,2
6,7,4,13,8,7,96,12,2
-4,-9,-1,2,1,2,-17,-10,2
-3,6,-1,2,-4,-3,32,-4,2
7,-3,0,-1,1,8,73,14,2
-5,-2,-2,7,-6,-7,-16,-2,2
3,-3,0,-2,2,-5,-121,2,2
-6,-5,-5,-10,-3,-8,-72,-1,2
2,-2,-2,8,-4,0,-4,-7,2
5,3,2,10,6,14,85,9,2
-5,-3,-2,-6,-1,-19,-83,-18,2
4,10,4,4,0,12,90,3,2
3,4,1,2,3,-2,5,1,2
3,12,4,10,3,6,5,4,2
-2,-8,-2,-10,-3,1,26,-10,2
-1,-15,1,-6,1,-8,-76,-14,2
1,-15,0,-11,2,0,-4,-4,2
2,-1,-3,3,0,-1,-27,5,2
9,24,7,11,5,5,23,5,2
-6,0,-2,-9,-8,-17,-55,3,2
1,-3,-4,0,-2,6,67,26,2
-3,-1,2,-10,-3,-7,-51,-13,2
1,-5,-1,-3,1,-3,-32,-9,2
3,7,2,0,-2,8,65,-1,2
2,-4,-2,2,3,-1,-88,15,2
-9,-6,-8,-13,-6,-6,36,-11,2
-3,-9,-2,2,-4,-1,-8,0,2
3,16,-2,7,10,4,-4,3,2
-3,-8,1,-16,-3,-6,-57,-15,2
-3,-5,-1,-5,-3,-5,18,-17,2
-2,-1,-2,4,-4,3,47,8,2
-5,-1,-3,-1,-3,-4,10,-5,2
-3,-5,2,6,4,5,6,3,2
6,10,-3,-8,3,1,-34,7,2
-6,-1,1,-11,-5,-4,38,-7,2
-12,-36,-5,-14,-3,-8,-96,-11,2
7,28,0,15,0,5,72,17,2
-8,-15,-3,2,-4,2,14,-11,2
-1,-2,2,14,3,5,55,19,2
9,10,3,-10,0,4,-3,-14,2
2,-2,0,3,-1,-6,-52,-8,2
2,0,1,9,2,3,71,13,2
-8,-7,-9,-25,-12,-12,-85,3,2
1,-1,1,9,3,5,9,-9,2
3,12,4,1,2,0,62,3,2
-3,-20,-7,-1,-2,-3,4,7,2
6,8,4,10,7,6,35,3,2
-9,-24,-7,3,-4,0,86,0,2
-3,22,-2,-5,-3,-3,-10,-7,2
-7,-28,-6,-2,-2,-4,-53,-8,2
0,-3,-3,-3,0,1,-1,6,2
3,3,1,0,-1,-1,7,8,2
0,-2,0,4,1,4,61,3,2
-2,8,-1,-8,-5,-2,-42,-3,2
-1,-7,-1,11,4,3,13,5,2
-2,12,1,-3,-2,-2,80,-8,2
1,-10,-2,-2,-2,0,-38,-3,2
1,9,2,-3,2,-1,-30,-2,2
-3,-8,-5,-10,-6,-2,38,-4,2
6,12,3,8,4,4,-20,7,2
-11,-10,-4,-7,-1,-6,37,-24,2
-2,0,-2,7,-6,-3,58,-2,2
0,4,1,6,2,-3,-51,-1,2
6,6,2,-1,2,1,46,11,2
2,-1,-5,-3,-1,-4,-79,9,2
-11,-12,-1,-3,-4,-8,15,-6,2
0,6,-1,-4,1,0,19,-6,2
2,15,2,3,0,2,9,3,2
-2,-20,1,12,0,3,41,10,2
6,19,-6,-24,-4,-9,-62,6,2
2,-1,1,16,2,8,60,14,2
-5,-4,-3,-17,-4,-9,-88,-6,2
2,4,0,-3,0,-2,-69,2,2
7,1,6,11,5,6,-11,9,2
-2,-8,-4,-1,-2,1,13,-5,2
2,7,3,16,4,3,-4,10,2
-9,-13,-8,-2,-11,-7,14,-12,2
5,2,3,6,3,3,16,10,2
2,2,-2,-9,-1,-1,-4,-2,2
4,3,0,5,-5,2,44,-1,2
-5,-6,2,0,3,0,-24,8,2
-4,15,2,-6,-3,-5,-63,-32,2
-5,-15,-2,-8,-6,0,34,2,2
3,-8,0,-2,-2,-1,-14,1,2
7,2,-1,11,2,5,61,6,2
1,2,-5,-3,-1,1,-18,2,2
-3,-13,2,2,2,-4,6,2,2
-10,-10,-7,-3,-8,-6,-77,-4,2
3,1,0,-10,3,3,-24,-2,2
6,15,1,3,-2,-1,61,0,2
2,11,0,1,-4,-2,-10,12,2
-4,10,3,8,3,-3,-20,0,2
-5,-11,-8,-17,-7,-8,1,-16,2
1,3,-1,-2,-6,6,83,10,2
-3,-1,-3,-10,1,1,-40,-22,2
10,-4,5,3,8,8,9,13,2
-10,3,-2,-12,-10,-13,-19,-26,2
-2,-13,-3,2,0,0,3,-1,2
0,13,4,0,1,1,7,-6,2
-7,-22,-11,-7,-5,0,65,-2,2
1,15,2,-3,2,1,-61,4,2
1,5,4,-2,-1,-2,-11,10,2
-1,-23,-7,6,-1,2,64,1,2
0,4,-1,2,-6,-4,11,2,2
5,-3,2,6,7,7,7,16,2
-2,4,3,-2,0,1,43,-5,2
6,7,1,11,3,-2,-54,6,2
-2,-3,-1,-12,-3,-4,-12,-12,2
2,10,5,11,6,8,93,-3,2
-5,-18,-3,2,0,-1,-44,-2,2
-2,-3,-3,-5,-2,-1,61,-2,2
3,3,0,-5,4,-1,-85,-4,2
0,1,2,0,-4,3,75,9,2
3,-3,1,11,4,4,5,22,2
-6,-7,-4,-11,-5,-3,6,-31,2
-3,1,-3,5,-2,-5,-52,-7,2
3,-5,0,-3,2,1,19,10,2
-12,-9,-3,-1,-7,-15,6,-7,2
4,-4,3,-15,1,-1,-57,-6,2
3,1,-3,-8,1,2,98,11,2
1,-2,-4,1,-1,-2,-32,14,2
0,-5,-4,-4,-4,0,-5,-13,2
4,13,3,1,0,-6,-65,11,2
-3,0,2,-2,1,2,9,0,2
-4,-5,-2,2,-1,-4,-35,-4,2
5,15,3,-2,2,5,15,-7,2
-8,-16,-3,10,0,-6,-43,3,2
-2,-9,1,-4,1,-3,-23,-14,2
-5,-3,-2,-14,-6,-5,-88,-4,2
-3,2,0,-6,-1,-4,11,1,2
-2,5,2,-2,2,2,-1,-30,2
4,2,0,1,0,0,17,17,2
1,3,1,6,-1,-2,28,2,2
-14,-11,-4,6,1,-3,71,-26,2
-1,0,-3,3,-8,-10,-63,23,2
-7,0,-1,-1,-2,-1,11,2,2
0,-3,-2,-14,-4,8,21,-9,2
17,10,5,3,4,7,13,11,2
0,-1,-7,7,2,1,-7,18,2
-2,2,8,27,13,10,30,-9,2
-7,-7,-3,-5,-1,-4,31,3,2
7,15,-1,-2,-8,9,64,10,2
0,-9,-1,3,5,8,45,-6,2
-10,-8,-12,-2,-18,-18,-51,-11,2
13,10,15,5,19,11,-32,8,2
-7,-1,0,-14,-5,-6,-36,5,2
10,10,-1,3,-3,0,16,5,2
-2,0,-5,-7,-6,1,6,0,2
4,4,1,-1,-2,0,20,-13,2
7,4,6,17,10,2,-67,16,2
-13,-16,-2,-19,-10,-18,23,-9,2
0,-2,7,3,-2,9,68,3,2
-5,-24,-19,9,-4,-5,52,-7,2
-12,-9,-9,11,-9,-15,-21,-6,2
8,13,4,-5,6,8,46,9,2
2,4,1,-14,-1,-6,-13,17,2
0,2,7,21,6,1,-18,-12,2
-3,-1,-1,-15,-4,-2,-8,-40,2
-3,-10,-4,4,-8,3,92,0,2
1,2,-1,14,4,-1,-44,-4,2
1,-3,-4,-30,-14,-12,-23,0,2
-6,-7,-5,-2,1,-6,-78,11,2
2,11,11,32,15,15,-4,16,2
-6,-10,-4,-15,-10,-8,-31,2,2
12,29,1,-9,0,6,-20,9,2
2,-5,6,-11,4,-1,5,-9,2
0,12,-5,-11,1,-7,-46,-2,2
-4,-36,-7,-18,-4,3,-23,-3,2
-2,-5,0,15,3,-7,-62,5,2
-4,10,3,-8,-8,-2,111,-5,2
6,0,-7,-11,-6,-1,-72,21,2
-4,2,-5,-3,0,-4,7,-10,2
4,6,5,-10,0,-2,-75,-1,2
-2,-11,-1,4,9,10,-15,-2,2
-10,-9,-5,-12,-12,-5,33,-21,2
4,19,3,15,3,-3,-4,-6,2
-16,-16,-3,-1,-2,-3,36,8,2
2,-4,-3,3,0,-3,-33,16,2
-3,2,3,-6,1,1,-27,-12,2
3,2,-1,-3,-2,4,52,-4,2
-5,3,-3,-18,-4,-9,-58,-10,2
2,-7,-3,6,1,0,31,6,2
-2,-4,-5,-8,-9,-9,44,-1,2
9,10,7,-2,8,13,-29,0,2
2,-1,2,7,-1,-7,-56,3,2
-1,-3,-5,-13,-3,0,19,5,2
8,17,12,18,14,5,-57,-1,2
-5,-18,-11,-14,-12,9,103,-4,2
-3,2,-1,12,-6,-4,10,-1,2
4,-8,1,1,8,6,-25,-1,2
15,30,16,8,11,16,14,6,2
-6,-17,-11,-26,-13,-20,-1,-2,2
-6,-5,-7,12,0,10,41,0,2
-1,-4,2,5,-9,-8,-49,0,2
-7,-9,-1,5,-6,-2,72,6,2
-5,27,3,-7,3,-9,-84,-9,2
-4,-19,-9,-20,-8,0,27,3,2
0,3,-6,-11,-5,1,2,2,2
10,-4,5,18,13,15,18,18,2
-5,3,3,9,4,-4,-47,4,2
-7,4,4,11,-1,-3,116,5,2
3,-12,-11,-16,0,10,53,5,2
-6,-4,-7,-16,-11,-11,-84,-5,2
9,6,4,7,5,0,-38,4,2
7,6,4,-2,7,12,-16,6,2
-5,-11,2,10,1,-9,-25,2,2
-4,8,1,-3,-5,-2,41,8,2
-9,-18,-12,-9,-3,-7,-65,-17,2
-15,10,1,-7,-2,7,77,-55,2
5,-11,-9,-7,-8,1,48,14,2
-13,-21,-14,-14,-17,-29,-40,-3,2
13,17,15,8,13,12,61,5,2
4,2,1,-8,-3,-2,-18,3,2
2,4,1,0,-7,2,-3,-8,2
2,-1,-1,-4,4,5,-22,-15,2
1,-1,0,11,-1,1,49,4,2
3,-5,-2,6,-3,0,38,7,2
5,13,5,12,6,3,-3,5,2
-7,-9,-4,2,-1,-1,-45,1,2
0,5,7,10,3,9,19,-16,2
-5,-22,-13,-14,-4,-18,-128,4,2
-2,8,3,11,2,-2,67,-8,2
6,-1,8,1,-1,7,55,3,2
-8,-14,-8,14,0,-5,6,-4,2
2,2,1,-3,-2,-4,3,-6,2
1,-12,-5,7,2,0,-45,1,2
-4,-3,-3,10,-3,-1,-9,-8,2
10,13,6,10,4,2,30,18,2
-5,-4,-3,-1,-2,3,-23,6,2
2,14,4,-6,-3,-10,-4,-1,2
-19,-23,-12,-15,-15,-2,-3,-16,2
-4,-11,-5,7,1,4,-10,1,2
-1,10,2,5,6,4,47,-4,2
-3,2,2,-6,3,-1,-28,-7,2
7,11,5,1,10,6,48,-2,2
2,11,3,-13,-6,-4,-2,-2,2
3,-20,-7,3,-2,-2,-11,14,2
0,3,3,-2,2,4,-1,-3,2
4,10,-1,6,-1,0,23,5,2
-4,-8,1,1,0,1,-2,1,2
9,-1,5,0,6,3,-4,3,2
-9,3,-1,-3,-4,8,85,-11,2
4,5,-5,-20,1,-10,-123,-5,2
3,9,1,1,-1,0,126,6,2
2,3,0,7,-4,-4,32,8,2
0,0,-2,-5,-1,-5,-1,-11,2
2,1,4,3,3,9,82,8,2
-1,-4,-2,0,-2,1,17,-3,2
0,5,1,-3,3,-7,-49,2,2
-1,4,4,3,5,1,-64,6,2
-5,-11,-2,-11,-5,0,59,-13,2
0,-1,-3,-4,-3,-4,-21,-2,2
1,-2,-3,0,-4,5,32,-4,2
2,9,2,5,3,-3,-25,14,2
-3,-4,-4,-6,-3,-4,-46,-10,2
-3,8,2,-7,-3,-5,-41,9,2
-2,-11,-3,-8,-3,-3,-4,-9,2
-6,-19,-6,3,2,-1,4,0,2
-4,-16,-5,-1,-1,-4,-21,1,2
1,4,5,4,3,1,-6,14,2
0,11,4,7,0,0,9,-1,2
7,-2,-2,-11,-8,-1,-24,15,2
-1,-5,-1,8,2,3,47,5,2
-2,2,-3,-14,-1,-15,-120,-10,2
3,9,4,-2,5,6,72,-6,2
-4,-9,-7,-14,-17,-13,-31,3,2
-10,-1,-5,11,-4,0,-30,9,2
4,-2,-4,-9,-7,10,82,5,2
-1,3,4,26,15,5,44,9,2
-7,-6,-6,-21,-12,-18,-89,-4,2
4,5,2,-4,2,0,72,-3,2
1,-5,-2,-4,1,1,5,3,2
-1,3,-6,0,-5,9,39,-6,2
2,3,7,5,2,4,25,-3,2
3,3,1,4,5,-3,-63,-4,2
1,8,4,-5,0,5,60,-15,2
-1,-5,-4,-10,-6,5,-23,4,2
-5,-5,0,12,6,0,-18,-16,2
6,15,5,-5,0,-7,-46,7,2
-6,-13,-4,2,-1,-4,-7,-9,2
3,-10,0,-6,-2,-5,-18,-1,2
4,-25,-3,18,7,13,18,22,2
12,42,7,-10,0,-1,-14,-1,2
-7,-19,-5,9,-2,-3,0,10,2
13,24,5,7,2,6,26,14,2
-4,-5,-3,2,-1,-3,-71,15,2
-6,-6,-3,-1,-2,1,123,-10,2
2,9,2,-12,3,-1,-111,-14,2
5,1,-1,6,0,4,38,13,2
-2,10,6,-24,4,-5,-14,-14,2
-2,-8,-9,6,0,-1,-10,4,2
2,1,-3,-7,-4,3,58,17,2
-9,-11,3,13,2,-8,-44,-1,2
5,12,0,-1,2,4,45,-2,2
-4,-8,-1,3,-3,-5,-1,-5,2
0,-6,1,-3,-2,-2,6,-5,2
-8,-16,-9,-10,-6,-6,-93,-7,2
-5,3,-4,-2,-5,-8,-3,-16,2
0,-14,-1,11,3,4,23,17,2
2,8,1,15,0,5,19,18,2
-7,10,2,-14,-4,-2,-10,-18,2
5,-10,-2,0,3,-11,-37,-7,2
-3,-7,-5,-14,-10,-7,31,5,2
-10,-8,-5,-10,-1,-4,-124,-26,2
-3,6,1,-2,0,4,68,-3,2
2,3,-1,14,1,1,36,9,2
3,-4,0,-6,1,3,-27,-4,2
-11,-1,-5,-5,-4,-10,38,-14,2
6,0,1,-6,1,-1,-28,5,2
-3,2,-4,-6,-2,7,-9,17,2
-8,-25,-3,5,1,-12,-91,-15,2
2,2,-1,0,-9,6,95,4,2
-2,-6,-4,-3,-5,-5,-23,-7,2
-1,8,1,7,2,4,79,4,2
4,7,-1,-2,-2,-4,-75,-3,2
-2,-5,0,3,2,-2,25,-4,2
-1,3,-1,-16,-7,-7,-46,-1,2
4,8,3,5,1,8,34,-5,2
0,-8,-2,5,1,6,18,-2,2
3,0,5,0,4,-1,-31,0,2
-2,-13,2,7,-2,-7,33,-1,2
6,16,2,-5,-3,5,88,-21,2
-2,-5,-4,-18,0,5,-28,-3,2
-1,1,-2,-1,3,-10,-96,4,2
-17,-17,-5,-7,0,4,38,-10,2
2,-5,-2,4,-1,-8,-45,7,2
1,10,2,-7,1,12,53,-3,2
5,0,1,-1,-1,0,83,-4,2
7,29,4,0,4,1,-45,14,2
-12,-29,-13,-9,-7,-7,-17,-15,2
0,9,0,3,1,-2,-23,0,2
0,-15,-2,-7,0,0,-22,15,2
8,14,6,5,0,3,33,4,2
-14,-22,-8,-5,-3,-1,-33,-1,2
1,7,1,19,-4,-6,89,3,2
-1,-12,-1,-3,2,8,11,4,2
-9,0,-5,-4,0,-17,-11,-33,2
2,12,4,-1,0,7,32,12,2
-1,-6,2,-7,-3,-10,-17,2,2
0,8,-3,-4,-2,2,5,2,2
2,-7,-1,-8,-3,1,23,3,2
6,6,2,16,6,-1,43,1,2
-6,-3,1,3,-4,6,15,3,2
13,18,4,7,2,4,-11,6,2
-14,-29,-7,-1,-3,3,30,12,2
-2,1,-2,-2,-4,-8,11,-11,2
1,3,3,-5,1,0,-59,3,2
8,0,-4,-1,-3,9,-4,9,2
3,2,3,10,2,6,62,15,2
-7,0,-6,-6,-4,-13,-69,-3,2
-2,-15,-2,-6,-2,-3,-4,-14,2
-3,5,-2,0,-2,-2,45,-18,2
1,-4,-3,-4,-3,-3,-80,1,2
3,5,4,-12,2,2,-24,2,2
-1,0,0,11,0,4,72,2,2
-7,0,1,6,-1,-5,-14,0,2
1,2,-6,-12,-7,-6,32,-6,2
-2,11,1,-11,0,1,-78,-8,2
-1,6,0,1,-2,-3,-36,11,2
4,-1,-2,6,4,6,39,3,2
6,1,1,5,-2,-2,-4,6,2
-16,-18,-8,-3,-1,-16,-86,-7,2
1,6,-1,-3,-2,1,48,2,2
-3,0,4,11,10,4,17,2,2
2,6,-2,-24,-1,2,-59,-7,2
9,9,5,6,4,9,32,6,2
4,-5,1,11,2,-1,3,5,2
-3,9,-2,-12,-11,-12,-46,10,2
-4,-1,-2,-10,0,-6,-50,-43,2
2,-8,4,7,3,12,42,15,2
0,-2,-4,-7,2,7,49,0,2
-9,-4,-4,-15,-12,-22,-49,-12,2
4,3,2,7,0,2,-21,13,2
-2,-7,2,31,0,7,127,-8,2
5,18,0,-16,3,-8,-84,-6,2
-3,1,-2,6,-5,0,113,1,2
-3,-15,-3,5,0,4,31,6,2
-3,2,-3,0,-3,-6,-19,-14,2
7,2,2,8,3,0,40,22,2
-8,-16,-6,5,-2,6,34,-12,2
-2,10,1,0,-1,-4,-40,7,2
6,3,-1,-7,-3,-1,5,5,2
3,26,4,-2,-1,-3,-24,-5,2
-3,-19,-6,-10,3,-7,-70,-4,2
-3,-12,-1,3,1,-1,50,3,2
1,1,2,-6,3,14,-1,6,2
-5,-8,-2,-5,0,1,-18,-7,2
6,8,0,-10,-4,-4,-26,-1,2
-3,1,-1,-3,-5,8,0,1,2
1,8,1,2,2,-4,21,-8,2
-9,-15,-9,-7,-11,-2,50,-5,2
5,-11,0,6,3,-4,-103,7,2
3,2,0,6,3,4,60,6,2
18,37,14,-5,5,3,21,4,2
-16,-26,-2,5,2,2,48,-3,2
-1,-3,-1,1,5,1,30,-8,2
-5,-11,1,-2,2,-5,-24,6,2
10,9,2,9,1,-1,17,-4,2
-18,-13,-3,-12,-1,-21,-128,-14,2
-7,9,-6,-15,-14,14,66,2,2
-1,14,1,8,-1,-6,-69,-14,2
-5,-22,-2,-6,-3,4,5,7,2
11,-11,-6,-8,2,0,-54,-20,2
-2,-5,4,-4,4,-4,5,13,2
-2,12,-3,0,-5,-6,-4,-22,2
0,14,7,-3,4,4,-10,5,2
-4,-30,-5,2,-3,2,7,18,2
5,31,5,3,3,5,-4,-10,2
2,-29,-7,-11,-2,2,12,4,2
-5,-18,-7,-9,-6,-11,-6,-8,2
3,7,-1,-1,-2,3,13,2,2
9,20,7,8,10,1,-65,6,2
-6,-2,0,-5,-4,-12,19,3,2
-19,-16,-13,-1,-9,-4,11,-13,2
4,6,0,-5,-2,-5,-57,2,2
-4,-2,-2,-11,-5,-5,-3,-14,2
2,0,4,11,9,5,23,10,2
1,-10,-4,-9,2,-2,-33,4,2
0,20,3,0,-4,1,46,-21,2
1,-12,0,8,0,3,38,5,2
0,-2,-3,-1,-1,-1,-20,6,2
3,8,0,0,-4,-2,35,15,2
-1,4,2,0,1,5,-69,-15,2
-2,-14,-4,-1,-1,3,15,-4,2
3,17,4,-15,-6,-1,99,2,2
-3,-24,-11,6,5,-2,-34,-3,2
-4,2,2,1,-1,-4,62,0,2
-1,-5,0,-7,-2,-1,6,-7,2
10,8,3,-14,-1,-5,-83,22,2
-2,0,6,11,2,0,-9,8,2
6,29,0,6,4,9,70,11,2
-6,-22,-4,-1,-4,-7,-25,3,2
5,8,1,10,3,5,-37,15,2
-5,-1,-2,-6,-1,-5,-14,-19,2
4,-12,1,14,4,0,15,23,2
13,37,6,12,4,13,86,0,2
-16,-32,-9,-4,-9,-8,-8,-4,2
-2,-3,-3,-2,-3,1,-48,3,2
-6,1,2,2,-2,3,60,-23,2
13,-1,0,-10,3,-11,-78,1,2
-3,0,-2,5,-4,5,121,7,2
-7,7,4,-5,-7,-8,-74,-23,2
4,-10,-10,-1,3,1,-9,14,2
0,-12,-6,-11,-1,2,32,-1,2
-4,-1,-3,1,-2,-7,-41,-14,2
3,2,2,-3,-2,0,15,16,2
10,39,9,1,-2,3,-6,-1,2
-12,-53,-13,-8,1,-3,-31,-13,2
-4,-1,-4,5,1,4,24,-2,2
0,-9,-2,2,0,-1,-27,11,2
-6,0,-1,0,-3,-4,26,-16,2
3,16,6,5,4,0,-24,7,2
10,2,-3,-4,-2,2,33,-3,2
4,-7,1,4,6,14,14,7,2
-2,-13,-2,-16,-1,1,-23,-7,2
6,11,6,4,0,-10,-43,28,2
-17,-13,-7,9,-10,-2,73,-3,2
3,-11,-12,-2,-3,2,60,4,2
5,0,-1,7,1,-3,-73,-8,2
4,11,4,15,6,-6,-31,9,2
3,7,6,-12,6,16,13,-6,2
-7,1,-4,-1,-11,-18,49,-1,2
-4,-11,-1,8,1,11,80,12,2
-8,-1,-5,-5,-7,-6,-16,-16,2
7,3,6,10,9,0,-23,5,2
8,5,-2,-14,-4,6,39,-11,2
1,12,5,6,4,-3,-17,7,2
1,10,0,-6,-4,5,17,1,2
3,-5,1,2,3,-2,-23,-4,2
0,8,3,-2,3,4,7,1,2
2,4,4,-2,-5,-3,-26,16,2
-4,-24,-5,-3,-3,2,40,-16,2
-14,-8,-6,-1,-1,-5,-34,-7,2
-3,-20,-4,-4,-2,-3,3,0,2
1,3,-2,-2,-1,1,21,0,2
7,6,2,8,3,7,15,27,2
-1,2,-2,-8,-8,-18,-128,-6,2
-7,-16,-5,-5,-4,-4,6,-1,2
1,-5,1,-3,4,3,-86,-8,2
-1,4,-2,-2,-1,7,117,11,2
-1,2,2,-8,2,-3,-63,-6,2
-1,15,2,-1,-3,-3,-13,-3,2
0,-6,-2,-7,-3,0,-9,-1,2
-4,3,-1,-5,2,0,-7,-14,2
3,12,3,-3,2,-5,-35,1,2
-6,-6,-5,-17,-8,-1,2,-3,2
2,-6,-1,2,1,-3,35,-1,2
-6,-3,-2,5,-8,2,30,8,2
-1,0,-2,-2,-6,-9,20,-31,2
4,5,7,10,11,6,8,9,2
4,3,2,-2,0,-2,12,3,2
-1,-1,-2,-9,-1,-1,-31,-11,2
-14,-17,-8,-12,-3,4,44,2,2
-2,-6,-4,-7,-2,-6,-1,-36,2
-6,0,5,0,-1,-10,-36,-1,2
4,6,-5,-7,-5,4,56,-1,2
10,6,2,10,2,7,44,13,2
-9,2,2,16,2,-6,-15,-14,2
-2,1,-1,9,2,4,93,6,2
-11,-7,-8,-8,-12,-3,77,-12,2
7,4,1,4,2,5,-3,0,2
4,15,3,5,3,0,-12,-4,2
-2,-24,-3,-3,2,2,-1,-1,2
-3,10,1,2,2,-6,-59,-15,2
-3,2,-3,-1,-8,-4,41,-9,2
9,6,5,3,2,0,21,17,2
-5,-3,-4,-8,-4,-3,-39,3,2
-1,-12,1,7,2,2,-22,-3,2
-1,1,-1,-7,-3,-5,-14,-1,2
7,22,4,1,2,5,-13,-6,2
-7,-18,-12,-18,-10,-12,14,-13,2
-1,1,4,-1,1,-2,-50,-1,2
6,-5,3,7,6,7,23,11,2
-3,28,4,-11,-1,-2,-6,0,2
4,-17,-6,-8,-2,-1,-4,-11,2
5,10,4,-2,4,-1,39,-9,2
-4,1,-4,1,-6,-9,-19,10,2
-8,-23,-2,-6,2,0,8,4,2
-9,4,-1,-7,-7,-9,-67,-6,2
1,2,-4,-3,-3,4,70,-3,2
4,0,6,0,3,3,-10,11,2
2,-10,-7,-6,-4,1,-53,13,2
-5,-4,-3,10,0,3,36,-3,2
-4,14,8,7,2,-6,-52,4,2
1,-27,0,-7,5,7,29,5,2
1,21,-8,-12,-10,-6,-26,-8,2
9,4,2,15,8,8,40,6,2
-17,-15,-8,1,-11,-14,-7,-4,2
-2,6,0,12,-3,2,43,4,2
3,-2,6,16,8,4,51,9,2
3,6,3,1,-3,2,-12,9,2
5,2,0,-3,-2,5,16,1,2
3,13,4,-4,-2,-1,-17,-6,2
-3,-28,-8,10,0,-3,33,4,2
8,13,4,7,6,10,39,15,2
-6,-11,-4,-9,-5,-8,-70,-1,2
-2,2,-5,4,0,2,29,1,2
10,-4,4,-13,3,7,5,2,2
-17,-8,-8,-23,-9,-21,-85,-25,2
2,-1,-1,11,5,6,59,5,2
-1,0,0,-11,-1,-9,-39,1,2
0,-2,3,7,-1,3,17,1,2
-4,-3,-6,-12,-3,-3,5,-1,2
0,6,2,-4,2,4,11,-4,2
-1,-2,1,-3,-1,-5,-51,-2,2
-11,-12,-10,-4,-7,-8,6,-3,2
4,3,4,3,1,1,-9,3,2
0,-2,2,-3,1,-1,-49,4,2
2,5,1,1,1,5,79,6,2
-7,6,-1,-3,-4,-10,-103,-20,2
-5,-4,-2,-1,-5,5,76,-3,2
7,3,0,5,2,7,39,9,2
-4,-4,-5,-19,-4,-3,14,-18,2
-5,3,-3,5,-3,-7,-67,11,2
-1,-2,0,6,1,-1,7,12,2
