-1,-7,-5,-1,-1,-1,5,2,3
1,3,1,-3,-2,-1,13,-1,3
-1,-13,-6,2,0,1,-20,-3,3
1,24,3,-2,-3,-2,8,0,3
2,1,0,2,-2,-3,1,1,3
6,30,10,0,0,0,0,-1,3
-3,-23,-8,0,-1,-2,1,0,3
-5,-14,-5,-5,-4,-1,-2,-2,3
-3,-2,-1,3,0,-1,0,-1,3
1,8,4,-1,-1,1,-1,-2,3
0,11,4,2,-2,-3,-22,-3,3
-1,-10,-3,-6,-2,3,6,2,3
1,15,4,1,-1,-3,-41,-3,3
-4,-18,-13,-1,0,0,1,2,3
-1,4,2,0,1,1,9,0,3
-2,-7,-3,-2,-1,-1,14,2,3
1,-3,-2,-3,-1,1,5,0,3
-1,-1,3,-1,-2,-1,-9,-3,3
0,2,-1,-1,1,1,1,-1,3
2,-1,1,2,-3,0,1,0,3
-2,-3,-4,-11,-5,-4,-3,0,3
-2,-6,-2,6,2,1,7,-1,3
1,3,2,-29,3,1,11,1,3
0,-2,2,-16,-1,-3,-23,-1,3
-1,-1,-1,-6,0,1,16,1,3
-4,-9,-11,-7,-3,-3,-4,-3,3
-2,2,5,13,-2,-2,8,2,3
-1,-3,-15,8,-2,0,3,-4,3
-1,-5,-1,4,0,1,4,1,3
2,2,4,5,-1,1,-7,-1,3
1,2,0,7,0,0,0,1,3
-1,6,-2,-5,-2,-2,1,-1,3
0,1,2,13,4,-4,-38,-1,3
-9,-23,-6,-7,2,1,11,-2,3
-1,20,9,0,-6,-2,-4,-1,3
1,-12,0,10,4,-1,0,1,3
4,1,-1,-1,0,1,24,0,3
3,4,3,-6,-1,-5,-42,-1,3
0,-5,-8,-4,-2,-3,-4,3,3
0,1,-1,1,-2,-2,7,-1,3
-1,-3,-2,0,-2,1,5,-2,3
2,-1,0,3,-1,-1,0,0,3
-1,4,0,1,-2,0,7,-2,3
0,1,4,5,1,0,12,-2,3
-3,-7,-4,0,-3,-4,-33,-4,3
-1,8,6,-2,-2,0,15,2,3
0,-4,-2,4,0,-1,2,-1,3
-3,-4,2,-4,0,-1,1,5,3
0,-3,-4,-5,-1,0,12,-2,3
0,4,1,-6,0,0,4,-2,3
0,-5,-6,-16,-2,0,3,0,3
1,12,7,-2,3,3,4,-2,3
-5,-24,-7,-7,-4,-5,-11,1,3
-1,-2,0,15,5,2,-5,-4,3
-2,15,8,17,2,-1,2,-3,3
-3,-22,-9,1,-1,0,10,0,3
4,22,4,5,-2,0,-17,0,3
-6,-22,-4,-5,-5,-3,5,0,3
1,-4,-4,1,-1,-2,-7,-3,3
-1,3,0,1,-1,-2,-4,-2,3
-3,2,2,0,-1,1,18,-2,3
1,6,-4,-1,-2,0,-8,1,3
-1,-5,1,0,0,3,14,-1,3
0,3,0,0,-3,-3,-24,-2,3
0,-4,-3,-8,-2,-1,12,-1,3
0,7,-1,-6,-4,0,-5,-3,3
-1,-3,7,18,10,6,14,3,3
2,7,1,2,-3,0,9,0,3
-3,-11,1,-2,-1,-1,0,1,3
2,3,-2,-8,-4,-1,22,-2,3
-2,-2,0,-10,-5,-2,-32,-1,3
-1,-8,-6,4,5,2,-5,-3,3
2,4,-1,3,2,0,24,2,3
1,4,1,2,-1,0,-1,-4,3
0,-5,-4,-5,-2,-1,-1,0,3
-2,3,2,-6,-3,-2,-10,-1,3
-2,5,5,4,1,1,5,-4,3
-2,-18,-3,2,4,3,39,16,3
-2,-1,-11,-2,0,-4,-70,-16,3
-2,-6,1,-3,-2,-7,-8,-9,3
3,3,-2,-6,-3,-2,5,14,3
-2,16,5,13,-1,-3,-7,-4,3
2,-18,-4,-31,-4,4,36,6,3
1,0,5,18,7,6,27,4,3
0,1,5,1,1,-2,-10,-1,3
2,2,-7,-2,0,-1,-15,-4,3
-2,-13,-4,4,-2,0,34,4,3
8,6,-1,-6,0,2,-12,25,3
-8,-6,-4,-8,-8,-12,-61,-5,3
-5,2,-1,-5,-7,-5,-11,-30,3
-4,1,2,22,2,0,-7,-8,3
4,0,-3,-6,3,3,19,17,3
4,4,2,14,7,9,46,6,3
2,-1,0,-6,-3,0,-6,2,3
0,7,-1,-23,-15,-15,-20,-6,3
-3,-1,10,34,12,7,6,-12,3
2,5,0,4,0,1,12,-6,3
-2,-6,-6,-2,-2,-6,-44,2,3
5,1,4,-1,-1,-1,5,6,3
-3,-1,-3,-13,-11,-6,-9,-1,3
-1,3,-5,-4,1,3,-1,-8,3
2,7,5,4,3,1,-5,8,3
-2,0,-2,5,1,-1,19,6,3
-9,-5,-6,-15,-7,-6,-12,-24,3
2,0,-4,-2,-3,3,25,3,3
1,1,6,-14,-4,0,-8,1,3
0,1,5,27,14,7,3,5,3
-2,-1,-1,-5,-3,-3,5,-3,3
-1,-4,1,-2,0,-1,0,-6,3
4,1,2,-2,-3,0,-10,21,3
2,6,-2,-1,-8,-2,-11,-2,3
-4,-1,-12,-34,-4,0,-12,-17,3
-8,-6,1,12,5,-2,9,-13,3
-5,-18,-4,15,6,3,54,17,3
-6,-9,1,1,-1,-7,-69,-14,3
0,-8,-6,3,-6,-7,-35,-15,3
7,17,2,-12,-5,1,14,-7,3
-4,3,0,-3,2,4,41,-7,3
-3,6,0,2,-2,-2,-19,2,3
0,-3,1,0,2,3,33,4,3
-2,-6,-6,-8,-2,-2,-13,3,3
2,0,4,4,0,-1,-4,-1,3
1,-1,-5,-8,4,3,59,-3,3
2,3,3,1,0,-1,-80,5,3
-3,-8,-2,1,2,1,12,11,3
1,6,2,3,-2,1,12,-4,3
5,-1,-4,-13,-2,1,5,20,3
10,11,12,32,8,10,8,-16,3
-7,-5,-4,-15,0,-11,-22,-31,3
-19,-9,-6,-7,-6,-8,-23,-55,3
2,-11,3,-3,2,7,37,14,3
9,19,-2,-2,-2,-1,34,32,3
4,-1,3,1,-1,1,-11,24,3
7,4,0,-6,4,4,55,4,3
-3,0,0,-5,-4,-7,-88,-12,3
-5,-3,-2,-7,-1,0,12,8,3
-3,-8,2,5,-4,-1,3,0,3
2,2,-5,-6,1,0,3,7,3
2,5,1,21,3,8,33,4,3
-1,-4,-1,1,-7,-8,-24,-1,3
-7,-4,-3,0,7,8,11,-6,3
1,-2,0,-9,-2,-5,-5,11,3
-3,-2,-4,-11,-2,-3,19,-8,3
-5,-4,2,4,-2,-3,-7,-6,3
5,5,5,5,-2,0,6,16,3
8,7,2,0,-2,-5,-34,-10,3
-14,-9,-7,1,-3,-8,-21,-50,3
-2,-22,-13,-11,-4,2,56,-11,3
-3,8,4,3,-1,4,-11,17,3
0,3,3,2,-1,0,-2,6,3
-5,-5,-4,-4,0,0,33,-5,3
4,3,5,1,1,1,-9,18,3
-6,-6,-7,-9,-5,-10,-54,-38,3
5,-4,-1,7,1,3,-1,14,3
1,7,2,-1,0,1,28,20,3
-5,-1,-1,-8,0,-2,-38,3,3
4,-3,-1,3,-1,2,8,3,3
0,3,3,-3,0,2,-10,10,3
1,2,2,3,-3,-2,14,-4,3
-8,-4,-4,-6,-4,-3,-2,2,3
4,5,8,12,-7,-14,-17,4,3
-3,-7,-9,4,13,6,-7,-5,3
-1,0,-2,-10,2,5,33,-6,3
3,1,-1,0,-2,-6,-38,12,3
-2,-1,0,-2,1,7,68,-21,3
-7,-2,0,0,-7,-9,-65,-15,3
9,4,2,6,-3,-3,-27,-8,3
-9,0,0,-2,1,-1,61,38,3
4,-2,-3,0,-1,-3,-92,2,3
-9,-2,5,-1,-6,0,70,-19,3
-2,-8,-14,-6,0,1,36,14,3
3,1,2,0,1,0,12,-6,3
1,-1,-2,-2,4,-1,-15,5,3
0,-1,-2,-3,-5,5,44,9,3
-2,0,3,-1,-2,-5,-6,8,3
-3,-1,0,2,3,4,22,-16,3
-2,-3,-2,2,0,1,40,9,3
0,1,-3,0,-1,-5,-28,-3,3
1,-1,1,-3,0,-2,-23,3,3
4,3,3,0,-2,1,-9,-13,3
0,2,3,26,-5,-1,23,-1,3
3,0,3,-9,9,0,-32,11,3
8,2,0,1,-2,2,11,13,3
-2,0,0,1,1,-2,32,-9,3
-6,-2,0,0,-3,-8,-69,-11,3
1,-2,-4,1,-3,1,38,35,3
10,2,0,2,3,3,-4,-9,3
4,3,3,-1,2,5,-47,14,3
6,0,-6,-13,1,7,68,-7,3
-6,-6,-8,-4,-6,-10,2,22,3
-6,3,5,-2,1,4,30,-20,3
0,2,-7,-1,-4,-4,20,6,3
-1,-13,-6,-9,1,-1,29,8,3
0,-2,0,2,-7,-11,-81,-11,3
-2,-6,1,9,3,4,39,11,3
7,28,5,-2,-1,-4,-56,3,3
-10,-2,3,1,0,0,79,6,3
-8,-4,-5,-4,-7,-6,-24,-9,3
-4,-1,2,-7,-5,-2,3,-1,3
-2,-7,0,10,1,-6,-22,-3,3
3,2,-4,-18,1,7,10,2,3
3,3,-1,-8,-3,5,-11,-10,3
-1,-2,-2,5,0,-1,-14,2,3
-5,-8,0,-4,0,-4,40,-13,3
4,1,-3,-6,-4,-6,-44,1,3
3,-4,2,6,-1,2,34,-26,3
-3,0,-3,-1,-6,-7,-36,9,3
5,-3,-2,-1,1,6,20,-15,3
-17,-3,-1,3,-3,-9,3,-13,3
6,5,3,6,5,7,59,17,3
6,11,2,1,4,2,-1,33,3
-1,-24,-8,-1,2,7,69,0,3
10,17,0,-6,-9,-15,-56,49,3
-15,0,4,3,0,-2,-55,-36,3
3,-7,-12,-8,-5,-5,38,0,3
5,14,13,4,5,8,63,1,3
-5,-17,-6,2,3,-1,-81,19,3
7,-2,-3,-2,-3,-6,67,1,3
11,12,9,3,-2,-4,-55,-6,3
-7,0,-3,-3,-5,-3,-53,6,3
5,-7,-1,-7,3,6,23,-3,3
9,10,6,7,6,8,69,78,3
-23,-12,-4,-7,-2,-27,-21,-75,3
-10,2,-3,-4,-12,-6,59,21,3
-22,-35,-19,-30,-7,-14,-107,-68,3
-1,-14,-11,-6,-7,8,25,-14,3
16,11,5,12,9,15,-46,33,3
-3,-6,-5,-16,0,-5,-24,-25,3
14,20,10,12,4,-1,9,13,3
0,9,4,5,4,-1,-70,-3,3
-14,-18,-5,-5,-6,-3,18,8,3
6,1,0,7,1,-4,-25,-15,3
-4,3,2,4,2,15,117,28,3
19,15,13,4,13,2,-17,-37,3
-59,-24,-10,-16,-18,1,122,-39,3
-22,-9,-2,-9,-11,-14,-107,43,3
6,7,-6,-3,-11,-18,-52,-20,3
33,5,0,6,5,6,-71,49,3
0,-13,-2,-1,1,0,43,-12,3
6,16,7,5,4,12,5,-20,3
5,11,7,3,3,6,49,18,3
-8,6,2,0,-1,-3,-32,-6,3
15,16,5,3,4,3,-57,11,3
9,-9,-1,4,4,0,14,17,3
-9,5,4,8,11,11,41,-24,3
-29,-12,-6,-5,-6,-16,-22,27,3
7,-1,1,-1,3,23,81,-26,3
-24,5,-19,-16,-25,-32,-26,86,3
-26,-52,-10,-9,-17,-11,65,-17,3
-68,-20,-10,-15,-19,-50,-62,-65,3
-15,-27,-12,-12,-20,-4,-43,-26,3
11,-8,-3,7,14,5,-10,-20,3
-12,18,4,3,1,1,22,69,3
45,6,9,9,17,18,80,28,3
-39,13,-4,-2,-3,-27,-53,-75,3
1,-28,-5,-18,-12,-11,27,9,3
34,3,18,33,21,34,88,91,3
13,26,-30,-33,-16,24,82,-9,3
12,-43,0,4,1,-23,-51,23,3
72,35,17,18,24,38,122,32,3
1,-19,-8,1,-8,-12,66,-32,3
28,0,9,6,-1,26,54,36,3
-19,22,-9,-9,-13,7,-11,76,3
21,-3,-2,1,3,16,66,56,3
34,4,10,7,16,-1,-36,62,3
5,5,7,11,13,-8,-25,2,3
19,13,-2,-8,-7,-7,-81,110,3
-41,-5,1,6,1,11,38,-28,3
-25,-11,-3,-5,0,-8,-76,42,3
-59,-38,-23,-21,-27,-36,12,-17,3
31,21,10,13,16,15,46,68,3
13,-1,1,-2,1,6,-67,-25,3
-12,21,-3,-16,-19,-32,-128,11,3
15,8,5,20,18,47,105,3,3
8,-1,9,12,17,1,96,-91,3
-16,-16,-13,-3,-12,42,127,-36,3
47,46,9,13,11,-6,-73,-50,3
41,40,21,15,12,28,45,-1,3
-21,-70,-24,-10,-19,-30,-52,55,3
-58,-6,-17,-11,-2,-22,11,-33,3
46,2,1,10,24,41,127,46,3
2,11,6,7,9,-16,-7,-64,3
62,47,22,13,13,-27,-95,48,3
7,-1,6,6,2,28,24,44,3
-9,-18,-11,-11,-16,22,127,100,3
-10,14,12,12,16,-28,-127,31,3
-62,-9,-24,-30,-36,2,127,-115,3
0,-46,-3,13,15,-10,-120,36,3
6,123,32,2,-1,7,45,-40,3
1,-108,-26,2,1,45,51,91,3
10,94,13,-4,-5,-22,-53,12,3
0,7,-1,-2,-10,-2,101,101,3
5,-2,-2,2,4,18,54,4,3
1,17,11,-3,-9,-23,-61,71,3
-17,-40,-4,7,15,4,-89,-12,3
26,-32,-10,-16,-20,-37,-59,39,3
-38,-30,-3,-5,-3,-20,3,-27,3
45,100,31,10,-5,2,-23,45,3
-10,-93,-30,0,6,5,0,-4,3
16,34,6,-1,3,-2,-116,17,3
-29,-22,-12,-16,-16,-37,-64,-64,3
2,-15,0,-8,-7,23,87,19,3
-16,27,-2,4,9,33,80,-16,3
32,35,17,16,16,-1,-99,-53,3
-28,-50,-25,-14,-9,10,90,96,3
8,14,6,4,7,-44,-71,-14,3
-10,6,9,1,6,74,97,-20,3
29,-8,-6,-3,-4,24,10,88,3
18,8,6,8,10,31,81,31,3
-35,-33,-17,-8,-4,6,-2,-29,3
11,10,9,4,10,9,104,31,3
33,27,12,2,13,-8,66,34,3
32,62,18,14,7,0,-28,-33,3
-41,-67,-37,-27,-39,-37,-53,13,3
38,-54,-6,2,0,-4,86,5,3
-21,7,1,-4,-20,-59,-16,-11,3
27,-2,-4,-5,-12,9,37,73,3
-75,-49,-29,-28,-39,-48,62,-62,3
-24,18,2,-4,-12,-32,-88,60,3
-31,-67,-13,-2,11,14,103,3,3
33,-31,1,16,28,27,30,59,3
-2,-26,19,10,18,1,-55,111,3
65,-47,2,17,26,23,-94,122,3
-66,27,-18,-28,-29,3,127,-49,3
-7,13,-9,-3,-2,3,21,12,3
50,30,8,5,18,57,127,-70,3
35,63,36,35,37,46,62,-36,3
0,4,10,7,8,21,54,72,3
-4,-2,-3,-8,-6,13,-21,-50,3
24,17,-6,-3,-7,-40,-54,-1,3
10,27,7,0,-1,18,97,84,3
14,23,5,4,1,-10,-21,-58,3
-8,0,6,-1,-7,-5,-25,-19,3
-30,13,5,-1,-5,-18,-7,65,3
8,-49,-11,-16,-27,-31,61,27,3
42,37,7,10,1,10,-71,2,3
-66,-35,-29,-25,-24,-103,-128,-107,3
5,8,11,11,18,29,98,47,3
-15,21,-14,-22,-24,-40,-26,-15,3
1,8,7,5,4,-1,39,-14,3
22,6,18,16,20,49,78,-29,3
-28,22,-15,-31,-30,-47,-54,-67,3
-39,-1,-15,-13,-13,-41,-128,-23,3
1,-5,6,11,12,8,-26,23,3
49,15,8,11,10,31,82,102,3
-32,3,3,2,4,0,56,-99,3
-18,-51,-19,-8,-3,34,127,70,3
-3,69,9,1,-2,-29,-128,-41,3
0,18,-5,-11,-17,-17,-35,-15,3
3,-8,-10,4,6,31,55,5,3
-4,-32,4,6,8,20,24,51,3
-52,-54,1,5,-4,-9,-40,-71,3
-19,32,-16,-24,-12,-6,37,-40,3
22,26,8,13,8,10,51,54,3
-19,34,4,-6,-8,-28,-96,-5,3
-12,-28,-14,-13,-14,-2,127,8,3
-62,-19,-10,-4,-4,-11,44,-36,3
15,-54,-10,-5,-1,9,67,12,3
36,46,8,5,10,0,-43,5,3
1,-9,-5,-12,-14,-53,-45,-86,3
-21,-15,-5,2,-4,-9,32,24,3
46,46,19,22,29,51,43,48,3
-27,-23,-15,-18,-21,-17,62,58,3
1,17,4,7,13,38,96,53,3
-2,-20,0,5,3,-3,39,1,3
-25,-29,-1,0,4,-9,-58,-50,3
-3,16,14,4,8,4,-44,-41,3
-19,-8,-13,-8,-7,-8,-2,60,3
31,-16,-4,-5,-8,-30,-113,-8,3
12,-63,4,12,6,25,-14,36,3
9,36,-6,-3,-3,-4,82,-21,3
-4,-4,2,4,5,24,61,-24,3
46,43,24,24,16,25,71,74,3
-27,-26,-15,-18,-31,-58,-48,48,3
29,44,22,15,9,31,95,9,3
-5,-4,-13,-8,-4,-3,24,-10,3
-11,53,11,-1,-1,11,-61,38,3
36,-27,-4,1,4,-1,-65,-73,3
16,55,5,6,11,13,24,45,3
10,-10,-6,-16,-6,0,-56,77,3
-53,-26,-3,1,3,-28,-84,-121,3
-24,22,-1,-3,-4,-5,-1,7,3
18,20,6,1,-3,-2,-65,2,3
20,0,5,8,9,8,-20,-51,3
-9,-14,-1,-8,-7,-17,34,-4,3
13,17,-5,-7,-2,0,-39,94,3
-8,-55,0,9,12,7,-9,-93,3
-61,-33,-15,-26,-39,-54,-41,5,3
-12,-42,-16,-10,-11,-29,-28,14,3
-16,-43,2,8,4,20,40,-1,3
10,6,-1,-8,-7,-14,49,-37,3
35,12,15,17,14,20,98,17,3
-11,14,-8,-8,-8,2,114,40,3
-6,13,-6,-10,-13,-13,47,38,3
-22,-18,-2,3,-6,-15,-99,12,3
17,55,12,8,14,19,-4,29,3
22,9,18,12,13,7,-78,-20,3
-40,12,-14,-19,-23,-25,2,-91,3
-15,-8,13,8,2,11,-18,56,3
-19,-73,-17,0,-2,7,48,27,3
41,33,8,12,10,32,18,45,3
-15,-22,-4,-2,9,-4,105,11,3
-9,-1,-4,-9,-7,-29,-97,-75,3
12,7,5,3,4,5,85,-23,3
3,17,2,1,0,-1,-81,12,3
10,-2,1,2,-1,18,77,14,3
46,51,13,17,17,32,114,75,3
-14,-4,-9,-3,0,-7,-38,-37,3
-8,-17,-6,-9,-7,-16,2,-7,3
-1,43,-9,-1,5,16,87,21,3
12,18,-2,-6,-6,-17,-72,-7,3
6,-37,3,-1,2,-4,-111,-32,3
-8,-25,-8,-6,-5,6,39,7,3
14,24,19,13,11,12,-61,-27,3
-2,-16,-3,-4,-8,-10,127,48,3
1,40,-1,-2,1,14,86,2,3
-16,-63,-2,-1,2,15,40,6,3
29,6,-8,-1,3,-13,20,8,3
4,-14,-3,2,2,10,63,19,3
-32,-3,-8,-18,-22,-62,-94,-35,3
15,-11,2,5,9,24,127,8,3
10,43,6,6,10,35,84,19,3
-22,26,6,4,-1,-15,3,-63,3
-1,-15,-21,-9,-3,-5,-52,13,3
-16,10,-5,-5,-2,-7,21,-13,3
20,32,17,8,8,0,-2,13,3
-16,-4,-11,-9,-8,-35,-108,-22,3
36,27,15,12,8,28,72,102,3
-6,-8,5,3,-3,9,87,-24,3
-25,-40,-11,-8,-5,-9,-52,-27,3
-21,-24,-2,-7,0,26,73,8,3
-2,-2,-3,3,-1,-5,96,19,3
9,65,22,0,-5,-10,47,-47,3
4,-9,-19,-15,-8,-11,17,28,3
-16,13,-11,-4,-1,2,-15,-50,3
27,17,9,7,10,10,-25,6,3
-1,19,0,-1,-2,-6,-43,57,3
-6,12,9,2,-1,10,47,12,3
19,2,8,5,3,20,47,23,3
8,-35,-8,0,2,2,57,-78,3
7,-6,-8,-4,1,9,2,50,3
-6,-5,-8,-8,-12,-16,-5,74,3
33,-13,3,12,12,23,83,105,3
-44,12,-8,-5,-2,0,38,17,3
-4,-67,-19,-8,-7,-16,-63,66,3
-39,-34,-12,-3,-9,-20,80,-37,3
18,-19,4,1,-1,5,60,14,3
13,42,14,3,-1,4,81,15,3
-27,-9,-13,-12,-11,-25,-77,-90,3
6,-1,4,2,1,10,41,25,3
-31,-5,-12,-12,-10,-33,-67,-23,3
13,13,8,4,5,15,7,-6,3
30,2,1,6,4,-6,-14,25,3
2,-24,3,0,-4,-1,28,43,3
19,93,1,-4,1,5,33,81,3
-20,-87,-10,-2,2,-3,17,42,3
-10,-5,-17,-5,0,-6,74,53,3
16,55,14,7,5,8,-128,35,3
-14,-64,-2,-6,-6,-1,97,17,3
-2,13,-5,4,5,-2,-36,44,3
-3,8,4,2,-1,-7,-38,-35,3
17,14,10,7,7,19,44,-8,3
-15,0,-10,-7,-8,-21,-96,-31,3
2,18,6,-6,-5,-27,-93,-112,3
-50,-65,-26,-25,-22,-31,0,-24,3
16,23,6,13,14,20,36,-15,3
-2,-21,-4,-7,-9,-56,-109,-4,3
33,20,13,13,10,19,21,101,3
-37,-40,-22,-10,-6,-9,42,-19,3
5,15,-1,-3,-4,-16,-74,-3,3
1,-14,-2,2,8,24,86,1,3
-39,-61,-3,-6,-16,-21,-92,-96,3
21,72,11,5,13,15,18,16,3
-7,-5,3,-2,-5,-14,-89,-74,3
-7,-36,-1,-2,4,18,88,28,3
-8,39,-14,-7,-10,-20,-60,54,3
24,67,38,17,8,22,69,48,3
-5,-79,-18,-7,-2,-16,-9,-4,3
15,29,9,7,0,-24,-124,-23,3
23,4,4,5,13,31,39,47,3
-18,20,6,-2,-3,2,54,51,3
-11,49,-1,-12,-10,-16,-89,13,3
-15,-11,-5,-4,-4,4,45,-29,3
-6,-2,-4,-9,-6,-14,-21,-14,3
17,8,6,8,5,9,36,1,3
15,6,8,3,1,8,25,-22,3
-6,-16,-7,-3,-1,11,69,-33,3
11,29,7,5,8,26,127,-31,3
18,-22,-27,-2,2,-16,0,-14,3
15,-2,18,-4,2,14,65,17,3
-13,27,-16,6,-3,6,21,62,3
18,-32,-12,7,5,0,3,106,3
-3,-17,6,2,8,18,-1,29,3
-14,5,15,9,3,-14,-11,-64,3
41,-10,45,-4,6,32,75,39,3
-60,-7,-12,-9,-14,-23,71,-32,3
9,52,7,0,-8,-14,-35,91,3
0,21,-25,-8,-10,-16,-46,33,3
11,18,-8,-1,3,15,-40,23,3
45,22,30,14,10,24,61,85,3
-2,-14,-8,-2,-4,-8,22,-51,3
-32,-15,-6,-2,1,-12,121,-8,3
-12,-6,-6,-5,-11,-42,-64,-25,3
21,36,3,6,10,38,127,47,3
-8,-75,-14,-4,-1,3,40,-113,3
5,58,-4,-7,-9,-22,-18,-73,3
-42,-80,-17,-8,-1,-15,-48,-45,3
-3,-3,-5,-3,-1,-14,-58,-46,3
16,9,15,9,11,29,13,27,3
-4,-11,1,-2,-2,9,81,79,3
4,17,-5,3,3,15,108,49,3
-44,-11,-5,-9,-10,-27,-104,-112,3
6,1,2,-3,0,5,76,55,3
5,-1,-2,8,7,25,25,79,3
-28,11,-15,-12,-9,-41,-106,-116,3
12,-17,-3,-6,-2,-3,100,46,3
29,18,6,13,8,16,44,76,3
2,-64,-5,0,4,11,-56,45,3
-12,-29,-1,-5,-11,-21,-55,-36,3
2,56,1,1,5,0,-56,-24,3
-6,-25,-12,-13,-9,-12,-55,-88,3
-21,-14,-12,-11,-19,-51,-6,-74,3
9,62,15,9,6,35,41,-19,3
-8,-25,-7,0,1,4,-72,46,3
-8,12,5,1,1,-5,-32,-8,3
2,-6,7,8,10,7,8,-6,3
22,29,9,2,0,8,15,26,3
-10,10,-3,-9,-7,-8,60,-68,3
-23,-61,-7,1,1,12,22,81,3
11,12,8,3,2,11,19,-1,3
-13,-15,-16,-13,-11,-8,45,7,3
32,21,17,14,14,30,118,53,3
5,-75,-9,-1,-7,-6,26,-64,3
12,11,-11,0,13,7,40,11,3
13,4,7,9,3,18,127,67,3
-20,-34,-10,-9,-12,-20,-13,-46,3
19,53,9,-1,-6,2,39,5,3
2,1,-1,0,1,5,-9,-7,3
-8,-3,-6,-1,0,-11,-71,49,3
18,8,12,7,7,23,119,-5,3
-19,36,1,-8,-3,-23,-35,26,3
14,11,1,4,-3,17,113,86,3
-20,-16,-8,-6,-1,2,28,-41,3
-10,-20,-2,-4,-3,2,61,-59,3
11,36,5,5,7,12,54,31,3
-1,13,-3,-5,-6,-26,-95,14,3
-3,54,9,5,5,13,80,41,3
-12,-76,-26,-16,-23,-39,-70,107,3
19,22,0,2,8,16,-33,93,3
-39,-45,-13,-10,-12,-6,67,10,3
7,-16,4,7,5,0,-97,-58,3
29,51,16,7,8,13,-8,27,3
-60,-17,-12,-19,-21,-49,-108,-106,3
-4,-12,-6,-7,1,4,82,43,3
8,-25,7,4,5,3,14,15,3
4,46,-12,-8,-3,11,76,-11,3
-28,-91,-10,-1,-2,-26,0,-112,3
10,2,6,10,9,22,12,-52,3
2,-33,-11,-9,-11,-28,17,67,3
-3,47,5,1,3,-1,-128,73,3
14,60,14,9,8,14,75,56,3
15,2,-6,-1,-5,0,-40,28,3
23,0,6,13,13,33,56,31,3
-13,-38,-6,-8,-14,-19,-128,15,3
-9,5,-3,0,1,14,117,-1,3
-13,8,6,2,6,18,29,-19,3
-14,-11,-10,-7,-12,-24,-43,-23,3
5,-9,8,0,1,7,76,35,3
15,21,1,0,7,10,-77,-70,3
1,5,-8,0,-1,-4,65,52,3
-22,-40,-26,-22,-16,-35,-86,-90,3
-28,-74,-11,0,4,-7,47,-44,3
8,0,3,3,3,9,16,63,3
5,83,19,4,1,-16,-128,-39,3
24,-33,0,7,8,23,95,48,3
13,8,-5,2,6,-14,-70,32,3
-8,-26,-5,-4,-2,2,42,-23,3
-21,-5,-5,-8,-10,-15,-24,-17,3
8,28,9,1,1,15,3,56,3
0,5,-1,-5,-5,-7,-8,-79,3
-9,14,4,7,6,7,-61,-53,3
13,-17,4,-2,-6,-8,15,-7,3
-17,-19,0,0,-5,4,79,-66,3
1,-88,-15,-4,-1,-23,-8,68,3
-10,15,-7,-8,-8,-25,-103,33,3
1,-10,2,-2,1,10,-16,11,3
-29,-30,-24,-9,-7,-31,-51,-82,3
11,19,4,2,-3,-9,32,-4,3
6,22,10,-1,1,4,-72,7,3
13,-2,-3,3,5,-13,-54,36,3
-8,27,6,-8,-10,1,67,2,3
-22,14,-2,-3,-3,9,82,45,3
12,-22,-2,5,5,7,127,69,3
-16,-14,0,1,-4,3,-31,-47,3
28,80,18,5,9,14,59,66,3
-23,-11,-4,-6,-7,-11,75,-128,3
4,1,1,-2,-5,5,127,53,3
1,0,-11,-4,-3,-6,-14,6,3
19,-29,2,5,3,0,-47,72,3
-34,2,-9,-9,-7,-18,-84,-34,3
11,-4,1,7,-1,26,61,38,3
-8,80,11,0,2,-25,-47,-45,3
-24,-42,-27,-10,2,-11,42,-80,3
17,14,15,13,13,15,2,44,3
0,1,-4,-7,-6,-3,-14,8,3
-4,-33,-1,-2,-4,4,-21,-14,3
-33,-21,-5,-2,-2,-4,-20,-30,3
28,53,17,13,10,27,36,17,3
-9,1,2,-2,-8,-16,66,-72,3
13,-10,-3,-3,2,11,-18,93,3
12,1,2,-1,2,-1,-28,89,3
0,13,1,0,1,-1,-68,9,3
21,1,-1,3,4,2,-90,18,3
-14,-17,1,-1,-3,-7,34,-52,3
35,53,15,12,8,9,-106,2,3
-8,-44,-9,-10,-12,9,63,13,3
-5,9,4,-6,-2,-25,-106,-22,3
28,9,11,35,17,29,127,92,3
-32,19,-7,-21,-14,-31,-51,-88,3
8,5,3,5,2,8,92,56,3
-2,6,1,-4,-3,7,61,80,3
-12,-22,-14,-6,-4,-4,-33,31,3
34,106,25,19,7,21,51,53,3
-22,-68,-21,-12,-7,-24,-73,-15,3
-20,-12,-7,-5,-2,-7,18,-52,3
6,12,10,6,3,13,73,-7,3
23,3,9,7,3,18,48,27,3
0,33,7,-5,-3,-8,10,-107,3
-13,-7,-3,3,3,2,-6,45,3
-28,-43,-21,-11,-5,-11,-20,-24,3
11,3,-5,-6,-1,-16,-25,-17,3
17,27,10,4,7,22,118,66,3
-17,-64,-31,-1,-5,-9,-102,-11,3
8,37,12,-6,-9,1,21,-37,3
-20,-36,-9,5,-2,3,8,51,3
-2,18,0,-3,-2,-5,-128,-25,3
12,21,4,4,0,1,-45,-14,3
-24,-33,-15,-20,-16,-14,77,-45,3
2,0,-3,2,0,-2,-35,54,3
23,25,11,13,7,13,-29,100,3
-48,-61,-16,-11,-5,-11,82,-68,3
17,-12,0,6,12,11,19,120,3
11,37,8,0,-1,4,52,38,3
-2,-22,-1,-1,1,-10,-46,-1,3
25,18,16,6,5,21,106,-21,3
11,15,3,-1,-3,5,41,-4,3
16,38,17,7,20,23,24,-49,3
-34,-58,-24,7,-6,-20,72,-48,3
32,21,5,-6,7,18,29,15,3
0,75,23,1,0,-1,84,-29,3
-46,-80,-27,-15,-9,3,-9,-30,3
23,24,9,7,11,13,89,34,3
32,10,9,15,8,1,-67,26,3
7,-6,-5,-10,-7,4,62,11,3
-15,-13,-2,-8,-14,-19,-19,-21,3
12,33,2,-2,-3,0,0,45,3
-6,9,-6,-7,-4,3,36,35,3
-30,-6,5,2,-1,-19,-87,-31,3
-30,-34,-17,-10,-6,-3,-5,-67,3
5,-5,-2,-2,-2,-8,-29,3,3
23,36,17,8,5,3,-36,86,3
7,-23,-1,-1,-3,4,32,-49,3
1,9,-4,0,6,-11,54,36,3
-12,-60,-3,-5,-1,-1,-11,-40,3
5,8,-3,-4,-2,4,-53,37,3
3,1,2,0,2,18,50,31,3
0,-20,-6,-1,-3,-6,-80,25,3
-2,55,2,2,-4,-6,-7,-27,3
4,9,6,-3,-2,2,57,19,3
-10,-20,-8,-6,-5,-17,-31,-4,3
9,13,9,13,9,27,127,39,3
2,-1,10,9,5,7,-14,12,3
-4,16,2,-3,-1,-16,-14,-32,3
-22,-27,-5,-5,0,9,7,-36,3
10,30,4,-3,-1,-12,2,18,3
0,10,-7,-5,-4,-7,-18,23,3
14,-17,3,7,-2,-7,51,-71,3
-81,-56,-70,-43,-26,-56,-128,-83,3
48,70,19,13,17,15,12,79,3
-12,-23,-8,-7,-1,-3,63,50,3
-1,39,2,-1,0,-14,-95,-13,3
-21,-29,2,-2,-6,-2,60,-4,3
-4,-8,1,1,-5,-3,-9,-6,3
14,32,-1,-1,0,2,-41,-72,3
-6,-21,0,2,3,10,-7,7,3
8,26,6,4,-3,6,50,25,3
-25,-60,-12,-12,-9,-21,-58,8,3
12,9,9,4,8,14,15,27,3
-17,-21,-10,-6,-7,-3,121,16,3
36,23,13,13,16,15,-75,-4,3
-7,6,1,-3,-9,-20,-49,-46,3
-31,-11,-17,-18,-22,-49,-60,-11,3
8,3,1,3,1,13,46,8,3
18,-11,3,13,11,13,33,58,3
-12,-43,2,5,5,13,0,14,3
-1,-18,-10,5,4,21,68,104,3
-24,72,-9,-21,-14,-45,-121,24,3
44,62,15,11,13,13,54,48,3
-5,17,2,0,2,12,35,-45,3
-24,-27,6,-2,-6,-9,-7,-45,3
13,54,6,8,0,12,3,37,3
24,-2,4,0,-2,2,-48,14,3
10,26,3,4,1,5,23,-14,3
-7,6,-2,-5,-4,3,-15,-60,3
-5,-28,-1,-1,3,1,5,21,3
5,2,6,4,2,6,-7,-1,3
2,-13,-5,-3,-7,-3,-30,22,3
-1,-9,2,-1,4,4,57,-21,3
-29,-53,-11,-7,-6,-17,-7,-74,3
-17,-12,-8,-9,-7,-19,-67,4,3
-1,-19,-2,1,8,11,32,15,3
-8,12,-2,-5,-5,-7,5,-21,3
7,-3,3,7,7,9,9,-3,3
7,6,4,4,-2,3,20,-1,3
-20,-71,-11,-11,-12,-15,64,-103,3
41,67,7,2,11,19,81,101,3
-17,-35,-11,-7,-1,-23,-62,-1,3
-8,-4,-1,-3,-10,-8,51,-21,3
-8,-19,-4,-2,-1,4,87,-23,3
3,25,5,1,-1,9,-14,-15,3
3,-95,-14,-2,-4,8,12,-1,3
-3,-36,8,10,10,10,-14,19,3
19,49,5,-4,-2,0,84,53,3
-46,-60,-12,-3,2,-11,22,-49,3
9,22,-6,-3,-7,19,85,13,3
11,-20,0,5,8,7,-29,17,3
-13,23,8,3,-3,-5,-69,-23,3
18,-10,-3,2,2,-4,-62,45,3
16,9,7,3,5,8,-68,44,3
-9,23,-8,-10,-9,-11,62,0,3
1,21,3,6,6,6,-53,16,3
17,13,3,0,1,6,-44,26,3
-20,-12,3,5,-1,2,-25,-26,3
27,39,14,7,9,17,5,27,3
4,60,14,7,-1,-4,-78,58,3
-80,-101,-30,-25,-22,-44,-70,-110,3
19,-4,-1,1,3,3,61,90,3
-18,8,-1,1,-1,-7,12,3,3
14,11,6,1,2,11,45,41,3
19,26,13,4,0,10,-10,-7,3
-4,39,1,-8,-8,-8,-29,-17,3
-20,-4,-2,-7,-3,-6,-15,-9,3
13,-11,-1,2,4,-3,-35,24,3
14,32,10,3,1,-9,39,-12,3
7,5,2,-2,-4,-6,-6,-20,3
-12,-56,6,4,0,7,8,24,3
1,-35,-18,-7,-3,8,45,5,3
-2,-9,-9,2,3,15,54,20,3
-8,8,1,3,7,12,22,-13,3
15,20,-4,-4,-8,-25,-98,-9,3
-3,-8,4,1,1,2,-19,-4,3
10,11,7,7,5,11,36,52,3
17,16,9,1,-1,-4,-41,55,3
-26,-5,-10,-10,-3,0,53,-32,3
-34,-43,-19,-19,-18,-45,-68,12,3
24,11,10,6,4,30,97,36,3
5,13,8,3,1,6,67,-29,3
25,14,-18,-2,11,6,35,-35,3
-39,-51,-18,1,1,-18,-70,-78,3
17,-2,-9,4,-2,3,-35,44,3
-23,-5,6,-2,-1,-12,-72,-98,3
10,0,2,1,-6,4,52,32,3
-3,-3,-13,-4,2,6,87,-14,3
18,46,4,7,11,8,7,18,3
-17,-39,-16,-14,-13,-28,-23,-53,3
15,21,18,17,9,25,30,84,3
-15,-39,-3,-10,2,18,127,45,3
1,14,2,-9,-6,-23,-63,3,3
5,23,0,5,7,-3,-24,25,3
1,9,4,-1,-4,4,27,2,3
17,24,13,8,-1,13,20,34,3
-3,0,2,0,1,2,84,-45,3
4,-15,2,0,1,-17,27,-2,3
-9,2,0,-3,-6,9,52,-39,3
-16,-5,-9,-9,-4,-20,-114,-90,3
15,1,2,1,5,19,100,25,3
7,-8,0,-3,0,-5,-86,24,3
10,64,9,1,0,-7,-14,2,3
-17,-57,-14,-7,-6,-5,20,-4,3
26,48,1,9,10,15,-22,21,3
-4,-12,-1,5,9,17,123,8,3
-5,-5,-6,-8,-11,-28,-128,13,3
24,29,12,10,5,13,35,40,3
-25,-39,4,-5,-8,-19,-32,-44,3
12,-9,-4,4,2,20,57,71,3
-14,-14,-10,-3,8,-3,-40,-45,3
29,32,5,3,-5,-25,-79,45,3
-32,-48,-12,-14,-12,-17,59,-14,3
-14,16,-6,-1,6,9,-20,27,3
10,-7,0,-1,-3,-1,50,16,3
3,0,10,3,2,10,-23,5,3
-7,1,4,-2,-7,-10,-24,-4,3
-6,-5,-4,-9,2,2,41,-29,3
-6,-4,4,-2,3,12,109,-6,3
6,18,4,0,2,-5,-23,3,3
2,26,2,3,-4,2,62,29,3
3,-8,0,3,-1,1,90,-47,3
17,4,-3,3,0,-3,-53,53,3
-1,3,-11,-4,1,12,127,12,3
-4,-3,0,6,9,8,-27,-23,3
12,18,8,9,3,3,63,36,3
9,-5,4,7,1,7,58,-3,3
25,68,21,6,-3,-1,76,-37,3
-19,-80,-25,-11,-5,-6,-17,29,3
3,9,7,1,4,0,-35,-10,3
-23,-14,-8,-8,-2,-7,21,-11,3
11,8,-2,0,12,23,-37,16,3
0,22,10,10,-8,-5,-76,-17,3
-5,-8,-5,-18,-20,-6,-31,0,3
-31,-31,-22,-6,-6,8,42,31,3
-1,-61,-9,0,7,-5,-64,-21,3
22,47,25,11,1,2,12,18,3
-4,-13,-6,-6,7,-10,-11,5,3
6,13,-7,-3,-2,-2,57,6,3
7,-18,5,-2,-11,-25,-27,74,3
-11,-37,-11,-1,3,-7,109,20,3
10,9,-5,2,3,10,102,-3,3
-13,-11,2,-1,3,-11,-29,-4,3
12,46,1,3,2,9,28,10,3
-5,-12,-1,-4,0,1,-38,7,3
4,30,3,-1,-8,-14,-92,-17,3
-17,-17,-4,-2,-8,-12,-55,-16,3
4,-8,-3,4,6,18,20,50,3
-8,23,3,-6,-3,-11,-85,-6,3
3,-2,2,6,7,27,115,18,3
22,-3,5,4,0,1,47,53,3
-36,1,-5,-6,-4,13,120,-11,3
26,11,0,4,4,-12,-13,-54,3
-2,-13,-3,0,-4,1,100,-26,3
13,15,4,-1,0,7,43,54,3
24,67,18,9,0,-9,-37,22,3
7,46,-10,-11,-4,4,-25,-1,3
-12,-27,-7,5,7,4,-39,57,3
21,-6,1,-1,1,1,-41,-30,3
9,16,-1,-2,0,-9,-28,42,3
-5,-14,2,1,-3,-6,-40,1,3
-25,9,1,-1,0,-5,-43,8,3
-11,-19,-7,-12,-7,-19,-82,-109,3
-13,-27,-2,4,6,9,15,18,3
-13,-27,-3,-4,0,-9,-16,2,3
3,2,6,2,0,12,6,7,3
-4,-4,5,3,-1,-4,-86,-7,3
-26,-19,-11,-12,-19,-26,-91,-104,3
-8,4,-6,-1,2,3,61,26,3
7,5,4,-1,-2,-2,-6,-25,3
23,59,7,5,3,19,55,49,3
1,-22,-7,-5,-3,-23,33,58,3
1,0,-2,-3,1,16,101,43,3
12,-4,5,4,4,-2,28,42,3
-15,-37,-4,-4,-5,-6,-23,-88,3
-1,59,3,-7,-5,1,8,24,3
6,27,6,3,1,4,-6,-3,3
11,32,2,1,1,-1,1,11,3
7,31,6,6,6,3,8,13,3
1,-8,-2,0,0,4,-24,-46,3
1,17,5,-1,1,-2,-30,64,3
-32,-4,-11,-9,-6,-10,-90,8,3
1,1,1,3,4,-2,3,66,3
9,-21,4,1,2,6,62,47,3
-39,0,-3,-10,-6,-21,-43,-63,3
19,5,9,12,3,28,53,45,3
-53,-44,-19,-18,-12,-30,-57,-28,3
6,2,1,11,14,20,63,47,3
15,-24,-2,3,3,10,1,-22,3
-4,7,-4,-5,-7,-23,-26,2,3
-15,-35,-2,-1,-6,6,95,-40,3
21,5,7,6,1,13,34,73,3
-25,-67,-12,-7,-2,-16,-119,51,3
-2,-21,-3,-6,1,-15,-68,-23,3
-4,-31,0,1,8,20,56,83,3
2,-21,1,-1,-3,2,-44,-82,3
-13,-5,-1,1,1,0,63,-38,3
-14,9,-2,-1,2,-4,-53,-13,3
-4,-25,-5,-3,-1,-7,-64,-7,3
-3,8,0,2,4,4,-65,-29,3
10,20,4,6,-3,5,2,20,3
1,-37,-5,-5,-3,1,68,-91,3
-2,27,-19,-12,-8,-19,-28,9,3
-1,-12,-3,2,4,5,-54,-2,3
39,57,19,14,17,36,84,-9,3
-18,-18,-19,-16,-14,-22,88,63,3
9,19,10,6,4,-1,13,-27,3
-6,-12,0,2,-1,-4,8,10,3
10,-17,-7,-4,0,11,74,-44,3
24,27,21,14,1,23,22,42,3
9,-15,1,1,2,-5,6,14,3
-8,0,-9,-8,-5,-5,14,39,3
1,-3,0,-1,-2,-9,-51,8,3
-2,5,-2,1,-5,-3,-32,-22,3
13,44,9,5,1,5,-20,5,3
-26,-76,-24,-9,-5,-15,-30,-61,3
5,19,2,2,2,-5,-33,15,3
-40,-44,-25,-10,-9,-10,31,-60,3
-12,-25,-3,8,4,11,99,41,3
9,42,5,-2,1,2,127,-30,3
1,-33,-4,2,3,-1,-52,40,3
-4,16,2,-5,-6,-12,26,-21,3
12,14,12,12,8,13,5,10,3
-23,-14,-13,-14,-15,-30,-116,26,3
7,5,2,1,-3,-2,18,-59,3
20,3,6,9,12,11,-28,34,3
13,20,4,-2,-2,7,68,-7,3
-20,-52,-9,-13,-14,-38,-58,-38,3
-20,2,-5,-6,-6,-7,51,35,3
-13,30,-7,-2,-6,-6,-43,-7,3
4,-28,-7,-8,4,-8,0,2,3
34,55,19,17,13,28,52,9,3
-15,6,-6,-10,-9,-16,-17,-9,3
-2,1,0,0,3,0,-30,-22,3
14,35,10,3,-4,9,55,83,3
2,7,2,1,5,13,104,26,3
-6,-15,-4,-4,-4,-27,-97,-1,3
14,-7,3,0,3,5,49,0,3
4,5,1,0,2,-10,-80,38,3
-8,-7,7,3,0,8,-17,4,3
-8,-9,-13,0,4,10,39,-15,3
4,22,12,-1,-1,1,27,12,3
-3,-7,-4,-5,3,3,107,-3,3
-6,47,8,4,3,-2,25,5,3
0,-14,-7,-6,-8,-5,-2,-36,3
5,-17,-3,1,7,5,-37,32,3
-12,1,-5,-4,-6,-5,8,-36,3
3,16,0,0,-3,-4,-47,0,3
29,49,25,7,-3,20,37,55,3
13,26,3,12,12,4,30,15,3
-3,66,-6,-17,-9,-22,-72,-23,3
-8,-20,-7,-3,6,8,120,65,3
-9,-6,2,-2,1,2,44,4,3
6,-9,1,-1,-5,-21,-89,13,3
14,-3,10,9,5,23,59,21,3
4,4,4,6,7,11,30,2,3
-2,3,-3,-2,-1,-11,-57,29,3
-36,-21,-6,-11,-6,6,114,58,3
-16,-79,-27,1,0,0,-40,-64,3
0,21,2,-2,-1,-5,-43,33,3
18,-32,-4,6,5,11,2,12,3
10,32,2,-2,0,-2,5,14,3
-6,-3,8,2,-2,-8,-77,18,3
-5,-29,-4,0,-4,7,-7,-73,3
-25,10,-5,-6,-1,-15,-23,-95,3
16,3,2,-1,-2,2,-6,23,3
25,61,15,10,6,15,18,57,3
-44,-100,-28,-7,-8,-30,-86,-83,3
19,26,5,3,7,9,67,98,3
-4,-12,-1,4,1,7,39,-1,3
6,-6,5,-1,-2,-6,-73,29,3
0,19,3,-4,-5,0,23,-2,3
-1,-22,-6,-1,-1,11,42,-14,3
-1,-5,2,0,-4,-8,38,-27,3
8,-29,-7,-6,-6,9,124,4,3
8,20,0,0,-1,-8,-74,-30,3
2,9,1,-1,-2,-2,-22,19,3
13,14,6,8,5,9,-64,1,3
-4,9,6,2,1,-8,-42,-19,3
-11,0,-6,-10,-8,-10,-13,-38,3
10,-3,3,2,5,8,-1,27,3
4,21,3,-2,-3,-8,-30,-30,3
-8,-16,-10,-6,-3,-13,-40,-16,3
8,15,3,-2,3,4,21,22,3
4,28,4,5,-2,4,12,28,3
-18,33,5,-8,-3,-5,-16,-59,3
-17,-7,-15,-8,-4,-18,-97,1,3
5,9,5,3,4,-1,-82,17,3
30,47,15,11,3,19,53,102,3
-42,-16,-10,-8,-10,-27,-71,-30,3
6,-59,-3,-2,-4,10,127,41,3
12,56,7,7,11,17,10,42,3
-15,-73,-8,-5,-3,-29,-128,-39,3
19,-4,-1,4,6,23,62,8,3
-52,-39,-3,-5,-9,-27,-52,-34,3
14,3,-4,1,1,8,-47,18,3
-16,-10,-3,-5,-4,-8,-30,-60,3
8,-17,-2,0,1,11,36,44,3
8,16,6,3,2,1,-32,1,3
15,-2,6,2,0,10,106,56,3
-16,0,-6,-4,-1,-1,33,-13,3
22,-13,4,5,0,0,-28,37,3
0,-11,-4,2,3,15,41,31,3
-5,7,-2,-4,-5,-8,7,1,3
5,-13,4,1,1,3,10,12,3
-11,-16,-3,-6,-2,-4,-36,-17,3
17,-23,19,10,2,5,-29,29,3
-8,-60,-14,0,3,5,18,33,3
-17,-38,2,-4,0,-15,4,17,3
21,-4,-1,3,6,18,12,87,3
-48,5,-13,-16,-13,-37,-116,-77,3
-12,-5,-2,-3,-1,-1,56,35,3
5,41,2,1,1,8,10,-30,3
-4,-16,-2,3,4,-5,3,-58,3
18,26,3,1,-2,9,81,0,3
4,6,-5,-3,-1,0,17,7,3
1,0,-8,-1,2,11,66,19,3
3,-27,-2,-2,1,-2,8,-15,3
-1,11,-4,3,3,2,-94,-60,3
-24,-23,-10,-9,-15,-36,22,-44,3
10,23,2,-1,2,14,94,-8,3
2,0,-6,-6,-8,-10,11,-42,3
11,45,21,10,6,13,90,50,3
31,62,6,3,-1,15,10,-24,3
-2,-21,-8,-7,-6,-25,-128,-32,3
-8,2,-7,-2,-2,-8,14,7,3
3,10,3,0,7,9,15,-8,3
0,19,9,2,3,10,53,-14,3
-5,51,7,0,-5,-12,7,-31,3
-4,-61,-14,-5,1,-1,-28,66,3
8,24,4,2,7,1,-4,45,3
4,-3,4,0,-2,1,-21,38,3
5,13,7,4,4,27,127,15,3
-3,-5,-2,-2,-5,-26,-56,-8,3
-4,-12,-6,-5,-7,-9,5,-9,3
-2,-22,-3,-2,-3,-4,-7,-11,3
3,-17,3,8,12,26,109,5,3
-13,25,-2,-11,-16,-29,-109,-38,3
15,1,2,5,6,-1,-70,30,3
-24,22,-3,-7,-3,0,71,-44,3
3,-22,-18,3,-1,5,-112,20,3
27,30,-4,-1,-4,15,127,21,3
2,26,-4,-4,0,-4,-32,-29,3
6,3,6,2,4,2,-31,29,3
-2,23,-1,-4,-1,-16,-64,4,3
-7,20,9,6,0,13,5,-58,3
-6,-55,-10,-5,0,6,51,-5,3
3,5,6,1,5,-2,-51,-29,3
11,4,0,0,-1,-2,23,5,3
-3,22,10,-1,2,7,116,-9,3
-17,-16,-11,-4,-7,-1,-8,2,3
-19,-17,0,-2,-6,-7,60,26,3
2,-18,-16,-5,-5,-5,-68,15,3
-11,-65,1,3,6,12,17,8,3
-9,3,-2,-3,-4,-12,19,-28,3
3,-13,2,3,-2,-8,30,-8,3
-30,-10,-9,-12,-7,-26,-58,-52,3
8,18,2,6,4,17,56,37,3
13,20,3,4,1,5,20,26,3
0,-15,6,3,-2,-8,-113,4,3
14,-8,-1,-3,-2,-14,-17,-8,3
-3,2,-5,-2,-4,-12,-75,-20,3
20,22,11,6,9,33,127,-9,3
-14,-23,-16,-12,-10,-37,-67,-46,3
1,13,10,3,1,11,106,30,3
0,32,-3,-6,-4,-2,55,35,3
10,26,-28,-4,2,5,-22,15,3
12,-14,-3,4,8,19,46,43,3
-7,6,0,-2,-6,-6,-23,-38,3
6,8,3,5,8,-2,-62,23,3
-15,16,2,-4,-4,-8,-9,-1,3
4,-7,-12,-4,-3,-1,-13,-9,3
-1,0,-2,-1,2,-1,-5,11,3
7,15,14,8,4,15,-4,-2,3
-11,-23,0,-8,-8,-22,51,2,3
11,7,6,5,7,30,81,19,3
-16,-34,-8,-6,-6,-16,43,-6,3
15,10,1,2,5,12,-26,16,3
24,-2,8,5,-1,-5,-21,-19,3
-7,8,-1,-1,-3,-6,68,8,3
-5,-3,0,1,7,9,34,5,3
-26,-27,-5,-5,-3,-4,-24,-58,3
22,34,11,5,5,7,3,31,3
-37,-29,-11,-9,-7,-9,-29,-98,3
23,30,5,-1,-10,2,-29,56,3
0,-38,-18,-7,-5,-8,-17,31,3
-8,28,12,5,4,4,-16,11,3
-18,-6,1,-4,0,-7,-27,-43,3
-23,5,-19,-3,-1,-5,-19,-38,3
8,5,15,29,1,1,15,-4,3
0,-3,26,18,8,6,0,5,3
23,32,-36,-74,-2,-5,-22,50,3
-6,-25,-7,-6,-4,0,14,-46,3
22,26,3,-5,1,11,65,66,3
-60,-6,-2,11,-6,-10,-17,-60,3
9,-25,6,19,-2,-22,-58,-14,3
5,-9,7,0,8,21,87,70,3
-1,-3,-3,0,-1,3,61,24,3
3,-7,-4,0,4,2,-53,25,3
-16,-4,1,6,2,5,-52,-15,3
2,3,3,2,1,6,27,13,3
-15,0,0,-3,-7,-34,-118,-34,3
18,-18,-11,-14,-4,12,113,22,3
-2,16,7,7,0,6,44,-36,3
8,-9,6,8,2,1,14,15,3
4,26,20,0,2,7,-8,0,3
-12,-55,-31,-20,-9,-18,-83,-38,3
27,-1,5,15,1,-2,-49,40,3
8,10,9,4,1,4,99,-5,3
-13,-76,-14,-7,-3,-7,-36,-4,3
-11,11,-8,-6,1,-4,-32,48,3
2,51,14,16,2,15,54,22,3
1,5,-9,-4,-4,-9,-124,-6,3
-3,4,-14,-15,-7,-18,45,-36,3
-6,1,-2,2,4,10,-36,-4,3
7,-7,5,5,0,3,30,20,3
-10,11,6,-3,3,3,35,-32,3
-14,2,-5,-6,-6,-10,-24,-23,3
9,10,8,2,1,3,-29,4,3
-2,3,5,1,-3,9,123,-10,3
7,-9,1,2,-1,-13,-76,-3,3
12,26,2,0,0,13,125,23,3
0,-18,-7,-7,-6,-12,-60,-20,3
-1,1,3,2,0,3,-14,-11,3
-8,-14,-2,-1,-1,-13,-38,-24,3
-33,-2,-3,-4,1,15,70,30,3
12,13,-6,-5,-5,-24,-26,0,3
-36,2,5,-5,-3,-1,30,-71,3
-5,-51,-53,-1,-5,6,34,-22,3
-9,7,-7,3,4,-5,32,27,3
18,5,-3,5,8,20,33,-39,3
14,-70,6,4,0,-5,59,66,3
-1,-4,1,-5,2,5,-52,-5,3
7,0,3,-4,-8,-18,30,-14,3
5,-4,-4,1,2,15,127,53,3
1,16,-5,7,1,1,9,45,3
5,20,17,-1,-4,-10,-14,-4,3
17,-19,-4,0,-7,-12,7,-4,3
-13,13,0,-11,-9,-10,-45,-53,3
0,-3,-17,-2,1,6,-29,-8,3
-2,16,11,-1,-4,-3,54,23,3
13,37,10,5,7,1,-41,-30,3
-7,-41,-2,-4,2,-4,46,-1,3
4,-5,5,2,1,0,-6,9,3
9,-23,1,2,1,15,87,11,3
-17,33,-9,-7,1,-3,22,0,3
-6,11,7,0,-4,-9,-33,-3,3
28,17,1,0,2,-1,-35,-24,3
-4,-6,7,1,0,7,115,61,3
12,-15,4,-1,0,5,-42,20,3
19,33,4,2,1,7,-4,-64,3
1,-8,-2,-3,-2,6,31,102,3
-44,-7,-12,-9,-6,-36,-60,-106,3
-1,-13,-4,2,2,-1,-75,21,3
-4,13,3,3,-2,8,94,30,3
7,23,14,8,0,9,0,28,3
-2,23,-12,-4,0,2,-41,-47,3
-38,-18,-5,-5,-4,-5,-11,35,3
7,-5,12,9,3,1,-48,69,3
-9,-1,2,0,-1,-7,-2,-42,3
-7,4,5,0,0,-3,-27,28,3
7,1,4,4,4,9,60,-33,3
-8,-23,-8,-7,-4,-10,-77,-21,3
-10,-31,-14,-4,1,4,32,8,3
-25,2,0,-3,4,-7,-111,48,3
48,38,3,4,2,9,23,38,3
-10,-39,5,0,2,7,24,25,3
2,18,1,-1,0,-7,-50,7,3
13,0,8,0,-3,-1,90,-22,3
-8,-1,1,-4,-3,-3,-81,-12,3
5,34,-7,1,1,-5,26,-1,3
3,1,-9,-4,-3,-12,-90,-18,3
11,-31,8,4,1,6,-4,6,3
-8,-23,-6,-2,-3,8,107,-21,3
-7,9,-4,-5,-4,-13,0,30,3
-51,-1,2,4,3,7,100,111,3
12,2,7,6,2,6,-2,20,3
13,23,4,0,-2,-1,-30,5,3
-11,0,0,3,0,4,25,9,3
-30,-22,-12,-7,1,-1,26,-52,3
-2,13,-4,0,1,7,-35,9,3
-3,-64,-10,-4,1,-7,7,18,3
-4,16,-3,-4,1,-3,-22,-9,3
17,17,7,3,1,6,27,-24,3
-2,10,-3,-5,-8,-11,80,15,3
-18,-8,0,-3,1,7,58,-49,3
6,3,6,3,-1,4,61,-33,3
8,-6,3,1,5,7,19,-51,3
-16,-13,-1,-5,-1,1,83,-33,3
-24,-2,-6,-6,-8,-12,-68,-25,3
20,69,20,5,2,12,127,7,3
30,-44,-27,-4,2,2,76,15,3
9,11,2,5,4,1,-7,-9,3
18,12,6,3,4,12,33,4,3
3,9,-2,-3,-2,-9,-55,23,3
-16,-25,-3,0,-2,-8,-13,-64,3
14,92,-2,-6,-3,-9,-45,-42,3
2,-87,-3,2,6,6,-26,59,3
-11,-53,-4,-2,1,7,9,-3,3
0,31,9,3,-3,-9,-67,11,3
-29,-24,0,0,0,0,-22,61,3
17,36,2,0,0,-6,-38,10,3
24,-11,-4,-1,-6,-1,8,20,3
23,3,7,1,-2,-1,-37,42,3
6,-6,3,1,1,9,108,5,3
4,50,10,0,1,-11,-90,-5,3
-11,-44,-19,-6,1,3,111,-82,3
11,23,8,3,5,14,12,-15,3
22,-16,-2,6,4,-2,-91,8,3
-11,-46,-18,0,7,21,126,7,3
7,12,2,0,-1,-15,-101,19,3
-7,20,1,-3,0,6,59,4,3
-32,-23,-3,-2,1,3,-43,-3,3
-10,16,5,1,1,1,2,2,3
-9,-1,1,-2,1,1,-20,2,3
8,-4,-1,0,-2,-6,-28,13,3
-6,-17,2,1,-1,0,-20,13,3
3,65,7,0,-4,-3,-1,-10,3
-24,-73,-11,-8,-1,-5,-21,-10,3
-1,59,-7,-10,-9,-13,-45,-19,3
22,-13,-5,0,1,-2,83,12,3
-1,14,5,0,-3,-7,-55,-25,3
-12,1,0,-4,-8,-6,-48,4,3
-3,-1,2,3,2,5,44,9,3
17,2,2,1,1,4,-13,-10,3
-8,-17,-7,-4,-3,-8,-58,11,3
2,15,2,1,-1,-2,-24,25,3
1,-15,3,2,1,0,38,12,3
12,13,2,-1,-3,0,71,-29,3
-11,16,5,0,0,-1,0,-29,3
-3,-18,-7,-4,0,-8,-63,8,3
-1,18,9,2,-2,4,39,7,3
-16,3,6,-5,-3,-5,-29,-35,3
32,5,-1,-1,-3,-1,103,-36,3
1,25,3,2,5,3,-35,-13,3
-11,-43,-4,-8,-9,-24,-29,-1,3
9,-7,-1,0,0,8,74,36,3
-13,-26,-5,-3,1,4,-30,5,3
-9,7,5,2,1,9,87,-39,3
12,-9,1,7,6,4,20,11,3
-30,-37,-18,-15,-12,-30,-47,-38,3
-12,-52,-7,-3,-3,-4,54,18,3
12,43,14,4,3,12,118,23,3
-9,-47,-17,-3,-7,-3,-35,21,3
-4,-23,-2,-4,6,-5,-42,-4,3
16,26,1,3,1,17,96,22,3
13,18,7,2,-3,-13,-38,-33,3
1,-46,7,5,5,14,57,-55,3
-11,7,-7,-10,-13,-32,-123,19,3
-5,-15,-7,-2,2,2,-12,5,3
-5,-21,-8,1,1,6,65,18,3
1,36,5,-3,-3,-3,-75,1,3
6,-7,-3,4,2,11,12,42,3
13,15,9,1,0,-7,-25,-15,3
-31,-41,3,8,9,20,85,50,3
-5,-17,-13,-16,-5,-25,-61,20,3
7,20,3,-3,-2,1,27,0,3
-10,-9,-7,0,-3,0,9,18,3
6,-2,5,4,5,3,-49,10,3
20,15,-8,-1,-3,0,22,-12,3
14,-6,3,8,8,12,-21,5,3
6,11,5,4,6,22,102,22,3
-1,0,-11,-12,-14,-45,-40,-4,3
-14,14,-1,-2,0,2,103,-20,3
9,16,1,0,0,6,10,-12,3
-6,17,-1,-1,-2,-6,6,-30,3
-14,-42,-8,0,0,-1,-52,16,3
-14,1,-3,-4,-2,-4,20,-26,3
-3,34,-2,-2,0,-4,34,14,3
-2,7,3,3,5,-1,-45,1,3
-2,-3,-2,0,2,7,7,6,3
18,18,1,-1,-1,-2,-30,56,3
-2,35,-1,-1,-4,10,127,-58,3
-27,-25,-3,-4,-4,-16,-128,-22,3
16,28,3,-2,0,9,51,-15,3
0,-3,2,3,3,10,23,13,3
5,17,7,5,2,0,-81,50,3
0,56,9,-5,-2,-15,21,-12,3
-8,-11,-23,-5,-5,-7,46,-2,3
7,-42,35,8,11,14,-79,-19,3
-5,-8,-11,1,-2,6,10,-17,3
1,-19,-39,-7,-9,-32,63,47,3
-19,-3,-3,-6,-2,-14,-81,-13,3
-25,-11,0,-1,-1,-1,17,53,3
35,13,0,5,11,24,67,21,3
28,-5,9,7,-3,9,45,21,3
-22,6,-11,-8,-2,-18,-50,-32,3
2,13,-14,-2,-4,8,107,-23,3
-11,-20,-3,-2,0,-3,5,20,3
2,-60,-3,4,8,19,27,61,3
8,11,-1,-2,-2,6,-20,44,3
11,57,16,5,-1,1,-115,30,3
-1,-24,-8,-5,-5,-4,51,24,3
2,8,7,1,0,10,-12,-13,3
17,2,12,5,2,13,3,-19,3
-18,-76,3,10,7,10,36,68,3
6,38,-7,-17,-9,-30,-45,-5,3
1,13,2,4,10,11,-6,40,3
-20,-12,1,-2,-6,2,100,-41,3
13,37,6,4,5,4,28,-13,3
5,-21,1,-3,-12,-9,-80,-32,3
-17,-23,-5,-9,-10,-14,-67,-35,3
28,18,7,8,11,13,-29,13,3
18,50,4,1,-4,6,66,17,3
0,42,11,5,6,3,-31,39,3
-2,34,0,-9,-6,-17,-111,-23,3
20,23,3,2,-1,-2,10,19,3
-7,-36,-9,-6,-4,-16,-39,-27,3
0,3,-3,1,4,5,18,13,3
12,32,-1,0,2,-2,5,-5,3
50,23,15,3,-1,4,84,-8,3
10,9,-12,-3,4,-1,-4,-2,3
17,-18,10,4,-5,-6,25,57,3
-18,-28,-7,0,-3,-16,-52,-46,3
-50,-36,-19,-16,-12,1,127,-28,3
4,-13,-5,-1,-2,-7,5,-60,3
-8,-11,6,4,0,0,60,-26,3
-14,-43,-10,-3,-2,7,24,9,3
3,-36,7,7,5,-2,35,30,3
6,70,14,1,-1,-4,-29,8,3
-22,-38,-19,-1,2,5,-13,-5,3
4,28,7,-2,-1,4,105,10,3
-7,-8,5,4,2,-3,-85,-8,3
-13,-11,-4,-1,-4,-2,20,-32,3
-5,6,2,-1,4,6,109,10,3
2,9,7,2,3,4,-42,-20,3
-16,-9,-17,-8,-3,-3,-12,-3,3
7,11,4,2,2,9,74,38,3
1,-7,7,6,0,-11,-128,0,3
-7,-7,-1,-1,4,0,95,-56,3
-9,14,-4,-8,-12,-25,-93,-12,3
0,37,-11,-4,-3,-5,-62,4,3
-4,-37,-2,-1,0,8,93,8,3
9,5,5,4,5,17,95,-8,3
7,8,4,1,2,5,96,21,3
-2,-10,-4,-3,-5,-5,27,-2,3
-19,-6,-8,-10,-7,-37,-84,-25,3
8,3,2,0,2,6,-68,22,3
-10,-1,0,2,-2,10,125,4,3
-7,-16,-3,-4,0,-4,-13,-3,3
18,36,20,14,11,29,65,6,3
-16,-84,-25,-19,-17,-31,10,-22,3
-3,-39,5,5,4,10,-23,-27,3
-32,-35,-19,-6,-2,-19,-36,-74,3
17,-17,-6,-1,-3,6,1,32,3
5,54,7,3,1,1,-11,34,3
13,28,6,4,4,4,-70,28,3
9,0,3,1,-4,3,28,-14,3
-5,-42,11,5,2,12,19,-4,3
-10,-82,-21,-12,-5,-15,9,1,3
1,10,-9,-4,3,-1,48,-1,3
13,32,9,3,3,5,-19,27,3
7,12,1,1,1,4,1,11,3
-4,28,10,4,-1,7,-12,29,3
11,2,6,7,4,7,59,24,3
-12,-39,-10,-8,-5,-13,-24,-17,3
-9,11,-3,-5,-4,2,-19,-21,3
7,11,9,7,7,15,79,1,3
-17,0,-11,-14,-14,-37,-55,-71,3
1,9,-1,1,0,6,103,-1,3
5,17,-4,-5,-3,3,57,49,3
-17,-25,3,2,-1,-19,-75,-30,3
36,36,7,9,7,12,36,27,3
-1,-43,-15,-2,-3,-1,8,3,3
8,13,0,-6,-2,-9,10,-18,3
6,1,6,5,4,4,-8,-2,3
10,29,9,6,2,11,-30,42,3
-9,28,3,-5,-7,-11,-45,-48,3
9,37,-3,3,4,1,-46,-40,3
-5,31,6,4,5,15,99,3,3
-11,-27,-8,-8,-7,-12,-98,31,3
-10,41,-8,-7,-10,-22,-15,-14,3
-12,-14,-1,3,1,9,35,7,3
14,8,-3,-3,-5,-4,-38,-2,3
2,-34,-6,0,2,11,8,-10,3
4,-9,8,2,4,3,-24,26,3
-2,-9,-4,-2,-4,-6,-13,0,3
-2,5,-2,-1,-3,-7,-49,14,3
-6,23,2,-1,0,-2,25,-25,3
5,-38,-2,0,-1,5,-30,-4,3
-2,13,3,0,1,-1,-43,-1,3
-4,6,0,-5,-2,-8,-20,-6,3
-3,50,4,0,3,11,98,-21,3
-11,45,20,7,4,-9,-68,7,3
15,-41,-12,-2,-1,2,23,3,3
-30,-2,-3,-4,-3,-5,34,-45,3
-8,-12,3,7,2,7,-58,-25,3
0,11,0,-6,-4,-9,95,-14,3
-4,7,2,0,-5,-4,-6,-24,3
10,3,0,0,0,5,-14,22,3
-23,17,5,0,5,1,48,-28,3
-2,-31,-4,-1,3,3,-61,-7,3
-13,-8,-1,-5,-4,-15,-21,-50,3
-8,13,-8,-2,0,3,28,3,3
19,13,4,2,1,0,16,18,3
-3,-34,-3,2,2,3,-46,36,3
-10,-8,1,-5,2,1,19,11,3
10,35,7,5,0,0,29,4,3
-6,-39,-5,-2,1,-6,-15,-14,3
9,-24,-4,8,2,11,62,22,3
16,37,4,-4,-2,-2,-28,-2,3
-7,-16,-7,-7,-3,-10,-76,1,3
5,-13,-4,0,-2,-1,-41,11,3
1,-1,-3,-2,-2,2,27,10,3
-10,5,4,5,2,9,57,13,3
0,-8,-5,-3,-2,-14,-27,-2,3
-8,-36,-15,-6,-4,9,88,33,3
-19,55,8,-3,1,-3,-76,-26,3
-3,-44,-6,-1,2,-3,-25,11,3
11,6,4,4,4,5,40,17,3
14,-14,-2,4,4,8,61,36,3
0,25,-6,-6,-8,-7,-14,13,3
12,-4,-1,0,-4,-8,-87,-17,3
-1,7,-3,2,1,8,115,10,3
-7,25,0,-1,-1,-5,33,20,3
12,-7,-4,1,4,5,19,6,3
-5,23,1,-2,-3,-2,56,-3,3
10,2,3,3,-1,0,-7,8,3
3,-56,-13,6,5,14,53,21,3
37,-5,6,-2,-2,-7,10,-34,3
-28,-11,-18,-12,-9,-18,62,26,3
14,20,2,2,0,1,-54,9,3
-2,18,12,0,1,0,3,2,3
9,7,6,8,5,15,23,13,3
-10,-19,3,2,0,-4,-41,-17,3
-6,-4,-1,-2,-3,-1,-8,-15,3
-5,4,-4,-4,-5,-15,-99,-22,3
5,-22,-6,-4,-5,-2,35,17,3
8,25,7,5,3,3,-36,16,3
9,18,2,-3,-2,3,45,5,3
-7,3,-3,-5,-8,-24,-109,-31,3
7,4,-5,-2,4,7,-9,9,3
2,34,3,5,6,11,61,-2,3
-8,-44,12,6,5,11,-27,22,3
-6,-21,-18,-9,-8,-31,-62,-74,3
-19,-11,-8,-6,-7,0,127,-9,3
-9,8,-1,3,4,16,65,22,3
-10,-8,-4,-5,-3,-12,-19,1,3
-15,-6,-2,0,0,11,68,4,3
-10,23,7,-1,-2,-15,24,-14,3
9,-22,0,-1,-2,4,-18,-3,3
17,9,-7,3,2,9,27,52,3
3,50,21,-3,-5,-2,-6,30,3
-25,-2,-3,3,1,1,35,22,3
-3,-14,2,0,0,3,14,5,3
-3,-38,-1,0,1,-4,-10,3,3
11,26,4,5,8,22,54,21,3
6,-19,-2,-1,-4,-9,-43,-7,3
-10,-8,1,-2,0,-7,-72,-26,3
-12,-24,-9,-5,-2,-5,28,-12,3
6,0,2,0,2,11,69,-5,3
0,-29,-3,-2,4,12,-10,-20,3
-11,1,-2,4,4,0,76,22,3
10,13,-2,-1,-2,4,86,25,3
-18,-24,-9,-8,-9,-26,13,-30,3
5,11,0,0,4,13,79,6,3
16,11,3,2,-2,0,39,30,3
9,7,1,1,1,1,15,-24,3
5,48,24,5,3,4,20,29,3
-11,-29,-20,-8,-6,-3,-31,1,3
-6,-4,1,0,2,-3,12,23,3
-23,-11,5,-2,-5,-6,-46,-92,3
1,-35,-9,-4,0,-1,-54,18,3
17,41,7,0,0,-10,-91,16,3
7,-3,4,1,1,14,69,18,3
-7,18,-3,-5,-4,-22,-85,-2,3
9,4,0,0,1,2,-41,8,3
-6,-19,-3,1,0,1,63,-46,3
-5,-11,-9,-5,-6,-14,-48,-23,3
4,14,1,-1,1,5,15,14,3
-18,-22,-8,-4,-5,-1,61,-16,3
-6,-26,3,0,-5,-25,-76,3,3
-11,16,-9,-3,-4,-9,12,-49,3
-14,-47,-10,1,0,6,54,27,3
-7,-8,-5,1,4,1,-83,21,3
1,12,4,1,2,9,45,28,3
-1,-27,-2,-1,-1,-6,-73,-20,3
-4,-7,-2,-3,-3,1,43,-12,3
1,17,0,2,1,6,20,1,3
-9,9,-5,-6,-3,-1,66,-14,3
-2,-56,-19,-8,-6,-24,-75,9,3
-3,-14,-7,1,6,12,56,-32,3
35,15,10,1,2,-8,4,41,3
4,17,-5,-3,-4,2,13,-28,3
-2,-5,-3,0,2,5,-20,-14,3
7,40,3,-3,-2,-8,-89,30,3
4,8,-2,-1,0,9,114,19,3
-18,-13,-3,-2,-3,-12,-98,-40,3
12,-20,3,0,-1,5,44,-19,3
-5,-11,2,0,0,-2,-15,-19,3
-6,-5,-5,-2,-1,3,58,-10,3
10,19,8,4,4,-1,-95,59,3
-7,16,1,-6,-6,-2,74,15,3
-5,-5,-1,0,0,7,49,-19,3
-1,-13,-5,-2,-3,-8,-86,7,3
1,-23,-3,1,5,11,83,9,3
-25,30,-1,-2,-1,-8,42,-26,3
4,-15,-8,0,-2,2,4,30,3
-1,-7,-3,2,1,8,72,-37,3
-4,-4,0,-1,-6,-16,10,12,3
1,-25,17,9,2,14,7,-29,3
5,38,-5,-6,-1,-6,81,6,3
-7,-35,-5,-1,3,3,-20,-34,3
9,-7,-2,2,1,8,70,-1,3
13,16,7,6,2,2,-12,16,3
1,35,4,0,-5,-8,-54,7,3
0,26,2,1,-1,-6,-38,-2,3
1,-28,2,-2,0,3,54,14,3
6,-9,-8,0,2,4,1,28,3
6,-11,6,0,0,5,-4,-10,3
4,11,-2,-3,-4,-12,-54,15,3
8,38,9,3,0,2,-27,-27,3
-15,2,-6,-6,-2,-2,-18,30,3
-9,-32,-6,1,3,-3,-22,-5,3
-8,-18,-4,-2,0,3,59,20,3
13,16,8,2,-1,0,-7,32,3
19,11,0,0,2,0,-78,7,3
-11,-2,-4,-4,-6,-8,21,-40,3
1,-12,0,-2,-2,-4,37,18,3
-4,5,-5,-3,-2,-2,3,-6,3
1,9,0,4,6,16,-8,17,3
-2,-12,-2,-4,-7,-16,-26,9,3
-5,24,1,-3,-3,0,-20,-15,3
11,15,-3,-2,-2,2,0,-14,3
-20,-60,-2,-1,0,3,40,26,3
11,31,3,0,3,11,58,56,3
15,28,18,4,3,-8,-59,17,3
-25,-43,-18,-2,1,-10,-64,-20,3
14,25,5,2,0,2,42,23,3
12,-19,3,5,0,5,-17,22,3
-10,30,0,-6,-7,-11,-33,-59,3
6,24,10,6,6,8,5,59,3
-16,-9,-11,-7,-4,-4,7,-42,3
-2,10,5,1,3,-3,-95,-32,3
-1,-12,-9,-6,-3,9,85,7,3
10,-12,3,4,2,7,-60,17,3
3,21,-4,-5,-6,-9,-16,-9,3
1,-23,10,6,4,9,6,2,3
-8,-28,-5,0,0,-1,-23,29,3
-23,-42,-15,-7,-8,-3,49,-69,3
-2,15,1,0,-1,-8,-93,18,3
1,-28,-13,-8,6,12,72,43,3
-11,23,-15,0,-6,-7,-31,-57,3
11,25,15,11,6,3,24,14,3
12,0,4,7,5,3,14,-17,3
4,10,4,2,1,6,26,9,3
5,-1,0,3,3,-2,-50,21,3
-8,-22,-11,-8,-4,6,97,-31,3
-9,9,-2,-2,-4,-32,-50,19,3
-2,14,-7,-6,-6,7,98,18,3
15,-28,-4,-4,-1,4,15,40,3
21,24,6,4,5,5,-53,4,3
3,38,10,-5,-7,-7,47,-29,3
-24,-67,-11,-3,-2,-15,-8,-9,3
-4,8,11,3,-2,-2,79,-23,3
13,46,2,0,-2,3,45,41,3
24,-7,-7,1,4,17,11,-35,3
-6,69,1,-4,-10,-6,-49,2,3
-15,-23,-1,-3,3,-7,-24,-53,3
-14,-5,2,4,5,9,28,37,3
-1,-18,-7,-7,-6,-15,-103,-4,3
0,21,3,4,2,5,31,-18,3
-7,-2,1,6,1,8,22,30,3
-28,7,-3,-9,-7,-14,-30,-80,3
15,47,15,3,-1,8,34,41,3
1,-30,-16,-4,1,-12,-7,-67,3
-7,-12,-9,-8,-7,-15,-74,9,3
10,-8,-3,-17,-1,-2,-2,38,3
4,-49,-12,-12,-1,5,9,-26,3
14,21,7,-5,2,-2,-1,-33,3
6,-2,-2,1,2,1,-4,9,3
-13,-21,-4,-1,-8,-10,-24,-14,3
4,29,-2,4,-1,7,23,25,3
-2,-7,4,2,-2,3,14,37,3
-3,-20,-6,0,0,5,46,-42,3
-10,-20,-2,1,-4,-16,-53,-25,3
-2,-14,0,4,4,2,-55,-16,3
16,22,7,8,-3,-11,81,-14,3
-23,-13,-10,5,2,6,-16,20,3
-8,-14,-5,3,-1,6,80,15,3
-9,1,5,6,4,-2,0,-36,3
-1,1,-3,-1,-4,-9,-108,6,3
29,51,8,3,2,5,62,21,3
3,-5,3,4,7,8,-24,-13,3
-10,-16,-6,-3,-4,-5,127,-9,3
-14,2,2,-1,1,1,8,-35,3
15,8,11,4,5,9,1,64,3
-7,-20,-9,-7,-6,-22,-94,16,3
-24,-67,-2,-6,-3,-2,37,-57,3
-6,-4,-4,-2,1,3,-8,7,3
2,-4,-4,-3,2,0,-23,0,3
6,6,1,1,1,4,35,7,3
20,14,2,2,0,-1,1,18,3
-2,42,14,3,-1,4,15,31,3
-2,-8,-2,-4,-6,-5,-58,-36,3
9,-13,-2,3,3,14,43,16,3
-19,13,-2,-5,-6,-13,-10,6,3
-12,-26,-7,-1,-3,-7,2,-56,3
19,46,6,4,2,9,66,37,3
-31,-19,-7,-6,-6,-20,-98,-55,3
-10,-22,-8,-2,0,4,67,23,3
0,15,-1,5,7,16,63,34,3
-33,-73,-13,-11,-7,-24,-102,-50,3
27,46,10,4,-1,1,77,18,3
11,-2,2,5,4,7,-39,-8,3
3,-15,1,-3,-3,-4,-28,37,3
-2,-3,1,1,5,9,13,-13,3
13,17,5,1,0,7,34,16,3
-8,9,-4,-8,-11,-14,15,-3,3
12,8,0,3,5,10,-1,20,3
-1,11,9,4,-2,-4,-23,-4,3
7,-15,0,1,1,-1,22,21,3
2,19,6,4,3,7,72,28,3
1,3,-2,-2,-1,-5,-60,-22,3
-9,-8,-5,-3,-1,-8,8,-5,3
9,-18,0,1,0,11,30,41,3
-4,-2,-3,-3,0,6,-2,-11,3
-3,-7,0,0,-3,-9,-83,20,3
-2,-4,-1,2,2,2,-16,12,3
-13,7,0,-3,-3,-7,51,-3,3
-2,8,0,2,1,3,39,16,3
-2,-29,-6,-5,1,5,-5,-5,3
-23,-11,-6,-8,-10,-24,-65,-61,3
7,33,12,1,2,-2,-22,-3,3
-11,-40,-1,2,0,5,3,36,3
5,75,10,0,-5,-1,-4,-19,3
17,-51,-10,-4,0,7,102,41,3
-6,6,-2,0,3,-6,-71,34,3
-8,20,4,0,6,7,40,9,3
2,-8,-4,-1,-1,-4,-84,-6,3
2,13,-1,-1,-4,5,31,7,3
-9,8,-3,-1,0,3,0,5,3
12,13,2,-1,2,6,66,-1,3
-21,-22,-5,-3,0,-6,-13,31,3
14,17,2,0,0,9,44,30,3
-5,-19,-5,-1,1,4,-2,9,3
9,5,-1,-2,-2,-11,-127,-24,3
-9,-16,-3,-7,-4,-7,-19,17,3
13,4,6,4,4,-1,22,23,3
-18,-12,-7,-3,-2,-6,-57,-17,3
5,3,-3,-1,2,0,1,-4,3
-1,-1,1,1,2,-4,10,-22,3
19,4,9,6,3,4,10,23,3
-20,-3,-8,-7,-1,-1,-13,-8,3
2,0,-1,1,-1,-2,-3,-37,3
-35,-69,-24,-8,-5,-12,-11,-42,3
14,37,-1,-2,-5,-4,-5,-12,3
12,-14,1,0,1,8,38,-3,3
-14,-3,2,-1,0,-2,5,59,3
10,21,8,4,4,7,-13,1,3
-6,1,2,2,3,7,36,19,3
-3,-15,-12,-8,-9,-22,-81,-18,3
10,20,0,0,-1,4,-18,-4,3
8,-13,1,1,-4,-1,17,-16,3
-14,-14,-6,-6,1,1,3,-22,3
12,11,7,5,6,12,-36,-8,3
7,-6,-3,-1,-5,-6,-8,7,3
9,24,2,-1,2,-1,-67,10,3
-11,-41,-5,0,-3,-8,-30,-3,3
18,12,8,4,4,7,64,17,3
-12,-25,-13,-3,0,-1,-33,33,3
-2,1,-1,-3,0,-1,69,-27,3
-12,18,-3,-3,2,-1,-40,4,3
9,3,4,4,0,0,22,9,3
13,39,12,10,3,11,-19,43,3
-2,-26,3,-3,-4,-2,127,36,3
-6,-14,-7,-7,-8,-18,-65,-30,3
-9,-8,-4,1,2,1,30,-24,3
-14,5,-4,-10,-6,-8,11,-40,3
22,29,6,6,8,26,88,2,3
5,5,-1,-1,-1,3,15,-2,3
-5,23,-2,-4,-10,-9,-5,-4,3
0,-10,-6,-3,3,2,55,-3,3
8,47,26,15,1,-2,-56,12,3
-10,8,-25,-17,-12,-7,-10,-24,3
-12,9,-3,-6,4,-3,45,-39,3
25,-2,6,20,5,12,9,49,3
8,12,-2,-14,-3,-5,-22,-37,3
-11,-3,5,16,0,-1,-33,-14,3
-10,-28,-3,-6,-6,-1,-27,-18,3
11,12,1,-8,-3,-1,43,-10,3
-1,-31,-13,-12,0,-15,-6,-20,3
17,12,10,8,2,-5,-37,44,3
10,0,-5,-1,3,11,32,71,3
-12,-15,-1,-1,-2,5,86,23,3
2,8,-1,2,-1,-2,-111,3,3
-1,-2,-2,-9,-6,-14,55,-20,3
-3,4,3,3,-1,-1,8,-28,3
8,2,3,1,2,1,-2,-14,3
-8,-19,-8,2,0,-2,-41,30,3
-6,6,4,1,4,6,-30,-36,3
-3,-13,-5,1,-5,-1,84,24,3
3,4,-4,-4,-2,-4,-65,-17,3
-3,0,-2,2,0,8,62,15,3
9,-3,1,3,2,4,-4,-44,3
-8,17,-5,-1,-6,-12,-50,-30,3
-18,-13,-9,-9,-3,-2,-12,-18,3
17,-75,0,14,8,8,37,17,3
-16,-14,-14,-10,-4,-6,18,-12,3
-3,13,2,2,2,7,11,17,3
1,11,4,-2,-2,-19,-1,-15,3
-8,3,-3,0,1,0,5,27,3
-1,-6,3,-1,1,7,30,46,3
8,5,1,-1,-2,-1,15,-21,3
-6,-3,0,0,-3,-5,-41,10,3
5,17,0,-4,-2,0,40,-3,3
12,7,5,4,5,8,25,23,3
-5,1,0,-4,-1,-2,-25,-22,3
-5,-4,0,-5,-4,-5,-42,-15,3
4,3,2,0,0,9,58,34,3
8,11,6,6,6,8,13,39,3
1,-16,-3,-3,-2,-11,-68,55,3
-5,0,-1,-3,4,6,64,19,3
4,11,-5,-8,-5,-11,-4,-38,3
-2,-4,7,6,3,-3,-36,27,3
4,-7,1,1,-8,1,61,-21,3
4,-5,0,1,2,5,-46,10,3
-6,28,0,-1,0,0,18,-24,3
-11,-3,-5,-8,0,1,5,-19,3
-6,-15,-9,-7,-2,-12,-35,-36,3
-1,19,-1,0,-1,1,-10,-16,3
1,-32,2,2,-2,0,-21,14,3
11,-23,-8,-7,-9,-1,61,-25,3
-7,-5,-1,-3,6,1,-50,-21,3
-13,1,-5,-5,-4,-6,33,-57,3
-32,-46,-8,-3,-1,-2,-19,-16,3
11,0,2,0,3,5,-9,7,3
14,12,7,0,-3,-4,37,36,3
4,-24,-9,6,2,6,69,6,3
13,53,5,-3,-1,-2,46,5,3
-2,9,-2,-3,-2,-2,13,-13,3
2,0,-1,3,1,10,52,21,3
3,-7,4,0,2,-5,-70,6,3
6,11,2,0,-2,1,-17,12,3
-7,-2,-3,0,-1,-6,-11,0,3
8,3,1,3,3,9,7,37,3
-7,4,1,-6,-8,-13,27,-40,3
-1,-5,-5,-1,-1,-3,-33,18,3
3,19,9,5,3,3,-46,10,3
-9,-19,-7,-2,-1,-8,-42,-65,3
8,7,9,-4,1,-1,-5,31,3
17,62,1,5,2,7,48,13,3
-23,-55,-4,-1,0,-2,1,7,3
6,8,-10,-3,-5,0,23,-9,3
12,-34,-3,-2,4,0,58,-2,3
-10,10,-1,-3,-4,-13,-45,-62,3
1,12,-3,-1,-1,1,2,4,3
-9,-3,6,1,2,10,48,20,3
-2,-12,-4,-1,3,3,-22,-9,3
0,-36,-2,0,4,9,-24,62,3
-9,-8,0,-1,-4,-11,17,-15,3
-1,-7,0,1,2,2,-19,5,3
4,19,1,3,1,9,9,9,3
-8,-8,-1,-1,-2,-6,-1,-15,3
6,9,-2,-3,0,-1,-62,22,3
2,25,5,0,0,-6,19,21,3
5,-21,0,4,1,0,32,20,3
-24,-16,-8,-3,-3,0,66,-8,3
-9,3,-4,-5,-5,-10,-5,-87,3
6,6,-2,-2,1,-5,-65,36,3
-6,-10,0,-4,1,2,-6,12,3
-1,8,2,-1,4,-2,-52,36,3
10,-3,10,4,3,6,37,2,3
-2,-5,-1,-1,-1,0,-32,-6,3
4,1,-8,2,-2,-5,-28,0,3
-15,6,-1,-4,-2,-1,8,-6,3
0,9,0,0,1,2,21,11,3
4,-12,6,2,1,1,-28,2,3
3,69,7,1,-1,-5,67,-10,3
11,-11,-8,-1,2,4,67,-7,3
4,4,-2,-1,1,-4,-53,18,3
-13,-45,-6,1,2,2,74,-63,3
-5,8,-10,-9,-6,-6,-48,-15,3
17,7,5,4,2,6,4,16,3
-3,10,-3,-2,-1,4,52,18,3
6,9,0,1,-2,-2,-13,15,3
-5,-6,0,-1,-4,0,-15,22,3
8,-1,4,2,2,-1,-20,11,3
-12,-17,-7,-4,-3,-6,-37,-37,3
2,10,-1,-1,-2,-4,15,3,3
-2,-9,-1,-2,0,1,7,16,3
-4,-7,-2,-2,-2,-2,6,16,3
13,14,5,3,2,10,11,72,3
-12,0,-4,-3,-3,-7,-28,-44,3
15,15,17,5,4,16,49,47,3
-12,-23,-5,-4,-1,-24,-57,-63,3
-5,-25,-5,-2,-3,0,52,8,3
10,45,-1,0,1,7,91,39,3
4,-21,0,1,3,-3,-72,37,3
9,11,3,1,-1,-7,-75,-10,3
3,29,11,1,3,3,33,-45,3
4,-12,-5,-8,-12,-13,34,23,3
-9,19,0,1,2,-2,-13,-50,3
-29,-50,-9,-7,-6,-10,-46,-65,3
1,3,-6,-3,-5,-9,-28,-18,3
6,3,5,2,2,-1,-3,15,3
-7,-2,-7,-4,-5,-2,46,-7,3
6,17,2,-1,0,3,9,14,3
3,-7,-2,2,2,8,26,22,3
-14,1,1,-1,-1,-1,34,-19,3
11,3,-10,-4,-6,-16,-86,4,3
16,15,4,4,4,12,103,41,3
-3,-7,-2,0,-2,2,-26,0,3
12,-18,1,4,9,17,-15,-17,3
-10,30,0,-3,-4,-20,-17,-29,3
11,34,10,3,-2,6,85,29,3
-22,-74,-12,-5,-2,-11,-26,-4,3
4,4,3,2,-1,7,62,14,3
3,-1,3,1,1,5,26,20,3
-8,-5,0,-1,-1,7,49,-4,3
11,27,2,1,0,2,15,-16,3
-19,-21,-7,-6,-5,-13,-22,-33,3
-12,-33,-3,-2,0,7,47,-10,3
4,39,-7,1,2,1,-10,8,3
12,30,5,0,1,10,73,-2,3
1,-13,-3,-1,-1,-11,-28,21,3
7,26,11,6,3,4,55,42,3
-37,-30,-9,-5,-4,-1,44,-61,3
5,10,-1,2,0,-4,-27,30,3
1,12,7,4,1,6,43,32,3
-4,-22,-4,-1,0,-2,-33,3,3
1,12,2,-1,0,0,-33,-43,3
-21,-12,-9,-10,-8,-24,22,-51,3
-1,-8,-2,3,2,0,-67,21,3
1,4,2,2,3,7,-21,-22,3
12,-12,-4,0,1,4,31,14,3
-5,5,-5,-5,-4,-4,20,0,3
11,9,1,0,-1,-1,10,61,3
2,-7,-3,0,-1,-1,57,19,3
3,-7,1,-2,1,1,39,-27,3
5,0,2,1,2,1,-8,5,3
8,10,2,0,2,2,29,-25,3
2,-17,-6,0,-1,-1,9,-7,3
-10,-10,2,-4,-6,-27,-128,-31,3
13,43,8,4,6,18,110,69,3
-5,-21,-4,0,1,1,-29,-17,3
-9,-21,-7,-6,-5,1,84,35,3
2,-1,-4,-2,-4,-10,-34,26,3
13,0,5,4,1,7,24,39,3
21,25,-2,-4,-2,-5,-70,53,3
2,-66,-13,-3,2,-2,-39,-84,3
0,33,-11,-2,1,0,18,66,3
-10,-13,-1,0,2,-3,-40,-5,3
-1,-37,-4,0,0,-2,-79,-11,3
-12,-20,0,-1,-3,-13,8,-38,3
-4,-2,-7,-4,-1,2,-16,-2,3
-6,12,1,2,2,-7,-108,-24,3
-3,7,-1,-1,-1,5,54,-35,3
6,28,7,3,1,6,-2,12,3
2,-20,-1,1,-2,5,14,14,3
-2,-1,0,-4,-4,1,49,37,3
-8,-7,-2,5,8,9,84,59,3
1,11,-4,-2,-3,-14,-99,37,3
8,11,9,3,4,6,2,26,3
9,-7,-2,0,0,13,50,27,3
-19,20,5,-1,-4,-15,-39,6,3
7,25,-5,0,-2,8,9,-33,3
-20,30,8,2,4,2,-14,-20,3
-10,-39,-12,-6,-8,-16,-59,27,3
11,-5,5,3,4,14,63,-13,3
-14,-7,-4,-7,-6,-28,-128,-61,3
15,2,4,1,-1,8,114,16,3
0,8,-2,2,2,5,59,-34,3
-13,12,-2,-5,-2,-5,-3,-28,3
-3,-1,5,3,3,8,-2,17,3
8,-3,2,1,1,1,-5,6,3
-11,-35,-9,-2,-2,-9,-54,-39,3
8,-3,-1,3,4,7,0,51,3
-16,7,-1,-5,-4,-2,1,-37,3
-10,-12,-3,2,2,5,73,30,3
-1,13,-1,-1,0,-13,-94,-11,3
4,9,0,0,-5,-7,19,13,3
4,15,10,2,0,6,9,31,3
29,-12,-3,2,-2,7,90,-12,3
-16,16,-4,-8,-5,-14,-83,-93,3
2,2,-8,-2,0,0,24,24,3
-3,-15,10,5,8,13,83,30,3
18,63,2,-2,-4,-24,-128,16,3
-2,-3,10,5,3,16,115,-22,3
-9,-44,-5,-7,-3,-11,10,-71,3
16,22,1,2,3,12,32,32,3
-9,-11,-2,0,0,-1,-32,10,3
7,8,1,2,3,8,47,23,3
-2,22,5,-2,-3,-1,-28,21,3
-1,-30,-1,0,0,0,-15,-3,3
-14,-29,-13,-6,-2,5,-6,-10,3
6,8,2,-3,-3,-7,-30,-1,3
-3,-10,-1,-2,-1,2,3,-30,3
5,5,-1,2,-1,3,20,19,3
7,-21,2,-2,-2,6,64,-38,3
-20,-6,-10,-7,-9,-31,-55,-40,3
-20,2,-6,-7,-7,-11,93,-112,3
-31,-20,-20,-17,-14,-29,-70,-27,3
4,5,2,4,5,6,-63,70,3
-2,-9,-3,-3,1,6,53,-1,3
2,2,7,2,0,-1,-16,10,3
7,10,-2,1,1,2,11,12,3
-3,-13,-1,-1,1,3,31,-15,3
8,1,1,2,4,5,2,67,3
-7,-32,-9,-2,-2,0,-100,-46,3
16,56,5,1,6,3,80,-11,3
-19,-60,-17,-1,-1,-8,-73,-31,3
15,-19,7,7,3,11,107,54,3
7,24,6,3,3,11,69,58,3
-3,-21,-12,0,1,7,-25,32,3
18,28,9,3,5,4,-39,33,3
-4,13,0,-3,-7,-19,-56,-19,3
-30,-24,-11,-5,-6,-9,-79,-84,3
5,28,6,-2,-3,-5,74,14,3
-4,20,2,-1,0,14,100,29,3
14,-3,-2,3,2,13,21,-43,3
24,9,-6,-1,-1,0,-29,84,3
-7,-10,1,-2,-1,-2,-49,-110,3
5,-9,2,0,0,-7,14,12,3
-6,0,5,5,3,10,-4,6,3
8,23,-5,-5,-7,-9,-15,-21,3
11,18,5,4,7,16,65,67,3
6,-7,-4,-7,-12,-27,-47,-46,3
15,14,2,-1,2,4,-43,86,3
36,1,8,4,3,1,37,35,3
-12,-53,-11,-1,-3,-2,1,63,3
0,-2,0,0,3,5,27,25,3
-2,48,10,-2,-3,-8,91,-42,3
-6,-5,-10,-2,0,-4,-44,-77,3
5,30,4,-1,-2,-4,12,-1,3
-7,-18,1,2,2,6,29,-2,3
-7,1,6,3,0,8,23,-20,3
-21,-16,0,-1,-2,5,18,19,3
18,1,5,4,3,-1,-31,35,3
-4,40,-3,1,-3,-2,-26,60,3
1,-9,-8,-2,0,-1,-5,30,3
3,17,6,2,2,2,2,22,3
-2,-9,0,0,-2,-2,-46,-1,3
-9,-14,0,1,0,0,4,-28,3
-16,-14,-5,-3,-3,-9,-33,-85,3
-8,-12,-4,0,-2,9,71,42,3
5,8,2,-1,-2,-16,-100,-6,3
1,-3,2,-1,0,5,84,-16,3
-37,-17,-10,-7,-2,-16,27,-72,3
8,20,10,7,7,19,101,26,3
-31,18,-1,2,3,9,52,31,3
-2,-25,-5,-5,-8,-16,-7,23,3
6,-1,1,2,5,14,72,47,3
-10,-38,-16,-3,-3,-13,-77,-17,3
0,-1,-1,0,0,0,49,-25,3
-5,28,-2,-1,1,-4,-36,-25,3
8,-51,-6,-2,1,6,-14,41,3
-2,19,7,2,1,-6,-13,-15,3
-5,-41,0,0,-1,0,-35,-25,3
3,14,-8,-3,-2,-3,-41,-48,3
1,8,-3,-6,-7,-14,-11,-51,3
-8,25,-4,0,0,1,-29,46,3
10,-81,-3,-3,0,1,-15,10,3
-6,-42,-21,-5,2,8,118,14,3
11,7,-4,0,-4,-19,-85,2,3
-5,6,7,0,3,-7,-52,-57,3
-17,-5,-3,0,0,8,125,-20,3
1,31,6,-2,-2,11,88,40,3
-14,2,2,0,4,0,2,-72,3
0,-14,-5,-1,-3,-8,93,44,3
11,30,2,0,3,3,66,70,3
-20,-99,-3,-2,-1,-1,-13,-25,3
23,57,4,3,5,16,46,41,3
-45,1,-5,-12,-12,-32,-84,-87,3
5,1,-2,-2,1,-2,16,36,3
8,29,8,5,5,6,-3,13,3
-2,0,0,2,-1,6,7,45,3
4,3,-5,0,0,2,12,9,3
8,6,4,4,-1,-6,-63,5,3
32,31,0,-1,-2,-9,-84,3,3
21,-21,5,2,2,2,-2,30,3
3,27,0,-4,-3,0,-14,-32,3
-21,2,-3,-2,-2,-3,-10,-32,3
-6,-1,6,2,-2,-11,-15,-38,3
10,-4,1,0,-2,16,52,52,3
26,-2,3,3,6,8,-7,80,3
21,18,-7,-2,-6,4,51,56,3
-16,-8,0,-3,-2,-13,-84,-11,3
25,38,-4,3,4,13,115,82,3
-35,-81,-15,-8,-2,-11,-53,-62,3
-4,28,8,-1,0,0,93,-111,3
-21,-14,0,-1,1,1,19,-6,3
1,6,0,-2,1,-4,-108,39,3
4,8,1,-2,-1,4,78,-54,3
4,-8,5,1,1,-4,-77,27,3
36,10,4,5,6,15,76,62,3
-7,-13,-2,-3,-6,-6,-37,44,3
5,5,6,3,1,6,42,80,3
-12,-8,-3,3,1,3,-30,-4,3
-13,2,-1,-6,-6,-11,-15,-10,3
-3,-3,-5,0,1,-2,18,20,3
48,40,8,3,2,6,-1,55,3
11,-11,-8,-6,-4,-14,-56,-65,3
-15,0,-5,0,-1,2,-22,-34,3
-20,-13,-3,-3,-2,-2,-4,-20,3
14,-2,11,10,7,22,95,53,3
-38,7,4,-8,-6,-33,-62,-3,3
18,-22,-6,-1,4,8,124,36,3
-25,-13,-10,-13,-6,-20,-36,-117,3
-21,-7,-2,2,5,16,72,10,3
44,42,16,11,10,21,7,70,3
-17,4,-10,-10,-7,-21,-73,37,3
12,-18,1,2,0,-3,5,-27,3
19,-8,2,-3,-1,1,44,8,3
22,-1,-3,0,-2,-1,-7,-13,3
-18,-7,-1,-1,-2,-1,-8,-82,3
-13,9,1,2,0,-6,-39,-14,3
5,-1,-3,1,-5,-11,-80,-4,3
-10,-1,-6,-5,-2,2,12,-7,3
27,13,11,7,4,6,22,72,3
-63,-23,-19,-19,-14,-29,-17,-73,3
-18,-6,-2,-3,0,-4,-34,55,3
13,-8,2,4,4,22,85,72,3
-46,-17,-12,-5,-3,-24,-47,23,3
13,34,6,1,2,11,86,80,3
-19,-19,-10,-5,-3,-14,-87,-28,3
-31,-67,-6,-3,-3,1,-17,-19,3
31,14,4,5,0,14,5,22,3
9,-6,3,1,1,4,7,43,3
27,53,7,3,-3,-4,6,55,3
10,8,0,3,1,-6,-13,-6,3
-5,10,4,1,0,1,12,-75,3
9,-15,2,6,3,7,-92,30,3
-2,7,0,-3,-8,-11,24,-6,3
-18,11,-5,-6,-4,-6,16,-51,3
-4,14,4,2,-1,5,9,35,3
23,-1,2,9,6,13,51,14,3
-14,-25,-10,-1,-2,-3,-30,-29,3
-12,-10,-6,0,-2,-5,-34,-31,3
-2,15,-4,-5,-3,-2,11,2,3
31,2,6,3,2,2,17,3,3
-9,12,-6,-6,-6,-5,-9,-7,3
13,8,4,1,-1,-1,7,34,3
9,5,-2,-6,-2,1,10,-42,3
4,-4,0,-1,-2,-5,0,46,3
-3,-13,0,-4,2,-5,56,-27,3
13,28,2,1,2,5,-69,-29,3
3,41,5,0,0,-1,-6,11,3
-23,-46,-7,-4,-5,1,54,13,3
12,23,0,-2,2,5,-24,9,3
3,-5,-2,-1,2,5,20,17,3
1,1,4,6,3,6,-3,5,3
-1,53,-1,0,2,-6,-73,-31,3
12,-29,4,3,2,8,45,-2,3
-15,-4,-7,-4,1,-14,-80,12,3
22,7,9,2,1,3,-3,19,3
0,19,-15,-4,-3,1,39,-28,3
0,-14,8,5,1,-5,-25,-4,3
18,15,4,0,-3,-2,37,22,3
-26,-9,-1,-1,1,-3,-13,-66,3
-8,21,10,-4,-7,-3,5,33,3
4,-6,-6,2,5,8,-45,24,3
-10,-11,-8,-6,-3,-15,72,20,3
16,-14,-1,1,1,10,72,36,3
32,4,9,6,5,11,95,49,3
-11,-1,2,-1,-1,1,43,-13,3
-3,17,1,0,-5,5,15,0,3
5,-26,-5,-2,0,-2,-18,-18,3
8,-20,1,2,4,10,-4,20,3
-15,-46,-11,-7,-8,-18,21,-27,3
15,26,-5,-1,3,5,-23,16,3
0,18,-1,-1,-3,-5,20,18,3
-2,0,-1,-2,0,-1,-35,-8,3
-10,-24,-2,0,3,2,13,-21,3
0,22,4,0,-2,1,33,-24,3
-10,-19,-9,-4,-2,-5,-26,-2,3
-1,21,5,4,0,1,18,-11,3
3,29,5,0,1,1,-8,8,3
-11,-16,-4,-4,-3,-4,19,-3,3
4,-11,3,3,2,4,-19,4,3
-13,-12,-2,-1,-1,-3,25,20,3
26,30,12,9,7,30,100,49,3
-18,-68,-10,-10,-7,-42,-94,-40,3
12,41,7,4,3,1,-22,16,3
-6,-92,-7,2,4,11,39,-15,3
-23,-5,-28,-12,-7,-27,45,-90,3
0,-2,3,2,0,15,17,6,3
12,9,2,1,-1,-3,-1,43,3
-14,33,-6,-7,-7,-16,25,-76,3
6,-4,11,2,0,5,-33,-7,3
-11,-1,-1,0,3,16,122,-7,3
-25,-26,-11,-3,-3,-11,-48,2,3
13,35,6,2,0,7,15,17,3
5,45,5,5,1,0,-40,10,3
-1,5,-1,-2,-2,-3,-18,-8,3
16,4,7,3,0,9,13,34,3
4,-6,-2,-3,0,-6,-14,5,3
-7,10,4,0,-1,-1,8,9,3
6,-8,-1,2,3,-1,-79,25,3
-5,-19,-8,-7,-5,-4,97,-23,3
-8,-4,5,2,-2,2,14,0,3
4,-10,-8,-1,0,-2,-96,7,3
5,21,3,1,1,6,59,5,3
-3,-5,-2,-3,-5,-6,31,-32,3
13,1,6,4,3,8,82,44,3
-13,-22,-3,-3,-5,-19,-55,19,3
9,6,0,4,4,12,36,46,3
-9,2,-2,-1,-3,-10,-96,-26,3
-25,-35,-7,-5,-4,-8,-56,3,3
-15,47,1,1,0,8,85,11,3
-19,-55,-8,-6,-1,-6,1,14,3
-8,-14,-4,-3,1,-4,-13,3,3
-23,15,-2,-2,1,10,28,-16,3
-7,-69,-4,-2,2,-5,-109,48,3
23,-2,-5,0,3,-3,13,-13,3
12,13,5,3,4,13,60,46,3
-12,-19,-9,-4,-6,-12,-44,-42,3
10,37,11,0,-4,0,27,6,3
1,8,3,6,2,7,-10,-22,3
-9,-18,-2,-6,-3,-13,-43,-48,3
-2,0,4,3,2,4,28,14,3
-8,2,-9,-6,-7,-15,-59,-74,3
-25,-11,-14,-8,-7,-18,-67,-37,3
2,5,0,0,3,9,69,23,3
-6,-6,-2,-3,0,-8,-120,4,3
8,9,4,1,3,14,88,32,3
3,3,1,4,3,10,38,-16,3
-23,-12,-4,-6,-7,-15,-56,3,3
6,32,0,-1,0,0,38,15,3
7,-37,-2,-2,2,8,90,21,3
20,28,5,1,0,-4,24,42,3
10,-15,-1,-1,-1,-1,3,4,3
28,67,5,5,4,7,24,57,3
1,-21,0,0,2,-2,-13,77,3
18,0,0,-4,-4,2,3,-9,3
-2,-4,-6,0,5,5,33,-4,3
8,-14,0,3,-1,4,-32,-14,3
-4,12,4,1,2,8,50,-14,3
10,6,0,-4,-5,-12,-71,-29,3
-6,-31,-6,-3,-4,-4,61,12,3
3,0,1,-1,4,2,-1,-14,3
7,5,0,1,0,6,23,1,3
-16,0,3,0,-1,-6,-46,-50,3
5,21,1,5,2,3,-10,9,3
-10,-21,-5,-5,-4,-7,43,10,3
-5,-4,-1,-2,-4,-4,-24,-26,3
-7,9,0,-1,-1,2,34,39,3
13,23,0,-1,3,1,6,4,3
1,-15,2,-1,-1,-4,-50,-12,3
-11,5,-19,-5,-3,8,-14,-2,3
14,27,5,1,-2,-9,18,8,3
22,0,5,5,4,7,-4,19,3
-3,-17,-10,-7,-6,-16,-83,28,3
18,20,8,4,5,12,30,58,3
-47,-24,-11,-3,-2,3,12,46,3
-26,-6,-3,-1,2,-1,-66,-8,3
14,12,16,6,-1,7,97,12,3
0,11,11,0,-2,-5,-21,-22,3
-5,-7,-12,1,4,6,14,0,3
10,12,26,3,-1,7,27,0,3
-18,-36,-36,-9,-6,-1,-23,-21,3
-12,-23,-17,-5,0,-8,-44,-19,3
5,-1,1,1,3,6,63,12,3
6,11,2,3,4,-8,-85,-13,3
-3,13,27,2,-3,-6,96,-16,3
-1,-23,-1,-2,-3,-1,-60,-8,3
2,-7,1,2,0,-1,-24,6,3
0,26,13,2,-2,2,11,7,3
-6,-33,-14,-1,-1,1,-26,-2,3
4,3,0,3,2,-2,17,8,3
-15,-6,-2,-3,-6,-1,3,-42,3
-2,-5,-5,-1,2,4,52,8,3
-11,0,3,3,4,2,-90,-11,3
-27,24,-6,-5,-6,-19,64,-38,3
11,-7,2,-4,1,3,23,0,3
-2,-17,-15,-3,0,3,25,4,3
-4,11,-1,-1,1,0,-15,-35,3
6,3,9,3,-1,4,45,8,3
-2,16,4,1,-1,-6,-95,-9,3
-16,-15,-11,-4,-5,-2,91,-22,3
16,2,3,4,6,1,-7,30,3
-6,-2,2,0,-1,-1,-43,-14,3
8,3,0,2,2,2,21,25,3
-1,-9,-5,2,-1,6,-3,32,3
-4,17,2,2,1,-10,-74,10,3
19,-11,3,2,4,4,16,10,3
17,-9,3,1,-1,7,82,17,3
-26,-12,-7,-7,-3,-7,3,-50,3
-15,3,0,0,1,5,15,4,3
1,-1,1,1,1,1,-7,-31,3
-8,20,11,-1,1,-3,-38,20,3
-25,-25,-16,-4,-3,-4,67,-21,3
3,15,-8,-10,-7,-18,-85,-9,3
13,28,8,4,2,10,59,72,3
-27,-47,-6,-5,1,0,90,-29,3
-2,-14,-3,-2,-6,-20,-128,-1,3
20,14,0,-1,-4,-6,50,0,3
-12,6,3,-2,-4,-11,-64,-44,3
-3,-6,-7,0,1,4,-10,32,3
11,-56,-11,0,0,6,-15,21,3
-4,-16,6,1,1,5,10,-11,3
12,38,5,1,-3,0,-20,-6,3
-8,-62,-4,-3,1,-2,-31,-19,3
5,22,20,0,-1,1,9,24,3
4,17,3,-3,-1,-2,-7,-3,3
-4,-51,-17,0,1,6,53,-21,3
-13,3,-16,-4,-2,-14,-103,37,3
6,23,-12,-2,0,4,111,-26,3
10,5,5,2,-2,-6,-44,3,3
-8,3,-2,-1,-5,-6,-67,5,3
0,14,7,4,1,1,73,-5,3
20,11,7,2,3,11,3,9,3
-19,-10,0,-4,-4,-10,-38,6,3
-11,-12,-9,-7,-2,3,108,-21,3
-4,40,2,0,-1,-10,-119,-30,3
-7,-18,16,3,0,4,-6,27,3
-23,13,-21,0,4,20,127,6,3
36,-8,-4,2,2,1,-69,-20,3
27,52,13,1,-8,-16,1,6,3
-39,-33,18,3,0,1,-22,11,3
22,25,10,5,5,5,-8,-2,3
8,6,35,-1,2,5,16,43,3
-7,-52,-104,-5,-4,2,-7,1,3
-9,14,-10,-4,-1,-13,-46,-70,3
-2,-7,7,3,-2,5,30,24,3
-23,12,17,2,1,-6,-47,11,3
9,26,31,4,7,14,81,16,3
24,22,-7,4,-1,0,-61,28,3
-18,-12,-7,-2,-1,-10,-50,-24,3
10,6,-13,-2,0,11,106,54,3
-3,-6,24,2,-2,-13,-59,-43,3
8,0,-19,-6,-1,-1,-57,56,3
6,1,4,2,0,0,61,-14,3
5,-3,-14,3,1,1,-52,-35,3
-6,1,2,5,-1,6,38,35,3
19,17,8,-2,-1,-4,-8,16,3
-15,-28,-3,-9,-5,2,-22,10,3
26,1,-6,-10,3,-6,-12,-32,3
5,0,5,-4,1,8,20,24,3
8,17,1,-1,0,-4,1,-12,3
-1,-16,-4,1,1,3,4,-3,3
-15,2,4,3,-3,-5,8,4,3
24,-10,8,-4,-1,1,-4,13,3
-14,3,-10,-1,0,-1,7,-25,3
38,13,2,4,5,10,9,38,3
-26,-25,0,1,-8,-22,47,-34,3
-18,-23,4,1,-5,3,111,-4,3
-16,0,20,1,1,-3,-19,12,3
-7,-23,-39,-6,-5,-9,-20,-22,3
-23,-14,-14,0,2,4,2,28,3
5,17,5,0,0,8,-5,11,3
-3,-15,-1,0,-2,-2,74,-28,3
-12,13,13,-5,-5,-19,-67,-21,3
-5,-1,-2,-1,2,7,19,12,3
-10,-26,-10,-6,-3,-8,-99,1,3
7,5,-3,0,0,-6,-62,-38,3
13,2,3,2,1,11,15,18,3
6,2,-4,-2,-6,-13,-32,41,3
8,37,18,4,2,5,18,-9,3
20,-5,-2,0,3,7,13,-8,3
-9,39,-7,-2,4,5,2,9,3
2,-52,9,-3,-3,-2,-22,-9,3
-1,11,-18,-4,-2,2,1,-20,3
-2,-9,-10,-1,-1,1,16,10,3
-6,-16,3,2,1,-6,-18,-41,3
10,27,0,0,4,6,30,-5,3
-5,39,10,-2,0,-2,-22,-12,3
2,-12,-1,-1,-1,-11,-95,-8,3
21,-8,-3,-3,1,6,29,39,3
14,2,3,1,-1,4,-17,70,3
-19,-40,-3,-3,-2,-3,-25,7,3
-26,38,-13,-3,-6,-4,50,58,3
-25,31,20,11,-4,-1,-30,-16,3
15,-4,-10,-1,0,-4,18,-45,3
6,6,4,2,4,6,36,-4,3
-4,-22,-12,-4,-4,-3,-28,4,3
-1,-19,-2,-2,-1,0,80,-16,3
-24,2,-10,-4,-3,-6,-8,-34,3
11,4,5,-2,-3,1,75,-8,3
-11,-10,4,-2,-2,-4,125,-19,3
-6,9,4,-3,-3,-10,-85,21,3
9,0,-5,0,0,10,41,-22,3
-5,-11,-4,0,3,-7,-36,0,3
15,14,5,3,-1,-1,-58,29,3
-5,6,4,2,1,11,31,42,3
-16,-53,-10,1,-3,-3,-18,0,3
-9,40,-2,-6,-5,-11,-60,-12,3
9,18,0,1,2,2,12,-7,3
12,-3,4,3,4,2,37,-5,3
-13,21,2,-3,0,-3,6,-4,3
42,-1,1,1,0,4,-64,-4,3
-24,-7,-3,-6,-2,7,63,-12,3
7,-15,-4,-5,-2,-11,-36,-21,3
-23,-7,-8,-5,-5,-7,12,-12,3
-12,-11,-1,1,3,4,56,-15,3
-7,5,-2,-6,-4,-15,-80,-9,3
-7,-42,-4,2,-1,0,37,2,3
16,71,11,-3,-1,1,-18,1,3
-18,-39,-17,-2,-4,-2,28,2,3
3,7,5,0,-1,-1,14,-21,3
-12,-16,-5,-2,2,6,39,-1,3
-7,26,2,-1,-1,-3,-78,-31,3
4,-3,3,1,5,-3,24,-2,3
3,7,-2,0,-1,3,30,-21,3
12,-19,-10,-1,-1,3,18,-6,3
-4,21,1,4,5,11,37,49,3
-10,35,2,-2,0,-2,-28,6,3
12,1,3,4,5,13,-6,31,3
-31,-12,-1,-5,1,-11,-26,-49,3
-12,-23,-14,-3,-1,0,23,-9,3
-7,-49,0,-1,-2,-19,-82,8,3
4,-9,-2,0,3,16,30,10,3
-4,17,4,3,1,6,51,27,3
28,-19,1,1,4,-8,25,-14,3
10,6,-4,-2,-2,7,31,-55,3
6,10,7,1,2,-3,28,-1,3
3,-25,-12,-6,-7,-5,-6,19,3
3,-2,1,2,0,-7,-93,-12,3
-4,14,9,3,2,3,54,31,3
24,9,-3,0,-2,-3,-4,50,3
-22,-21,-17,-5,-5,-3,90,-75,3
10,-22,1,1,3,4,4,35,3
1,0,1,0,3,1,-3,24,3
-18,-8,-1,1,-1,4,2,-10,3
-2,39,7,-1,0,-3,-25,7,3
1,15,0,2,0,-1,26,25,3
-18,-50,-5,-3,-3,-4,10,6,3
-10,-16,0,-3,3,-4,-20,-46,3
13,3,1,1,1,4,-34,9,3
1,-6,-10,-7,-3,-1,91,-5,3
6,14,1,1,2,4,42,20,3
-4,-1,-1,-2,-4,-10,3,-2,3
15,7,4,0,1,3,-28,-1,3
-19,-2,2,-5,-8,-13,-3,-65,3
0,2,-1,2,3,5,12,11,3
5,0,-3,0,-2,-8,-18,18,3
3,16,10,5,2,8,2,10,3
-12,35,-5,-5,-3,-7,-89,-16,3
3,-32,-1,0,-3,2,30,5,3
3,3,2,-4,-1,-5,11,4,3
47,34,19,7,0,7,-4,42,3
5,-25,4,1,1,4,90,48,3
0,22,-12,-3,-1,-3,-41,19,3
19,-7,-4,2,2,5,-11,-8,3
2,8,3,1,3,3,64,22,3
-6,-6,-2,0,-4,-4,-64,-43,3
0,10,4,2,-2,-5,-15,-25,3
-4,1,4,1,0,7,73,-2,3
-3,-9,-9,-6,-4,-8,-47,8,3
-3,-3,5,3,5,11,68,-5,3
-9,4,-5,-4,-1,-10,-107,-37,3
-11,-9,-10,-4,-3,-9,24,-33,3
-9,-44,-6,-1,0,-5,-18,-18,3
11,36,1,-4,0,5,-15,26,3
5,17,5,1,-2,3,100,19,3
-10,-13,0,2,2,9,-12,6,3
2,-4,-4,-5,-4,-5,10,-10,3
-22,-53,-8,-3,0,4,63,-2,3
-1,17,6,-1,-1,-8,-93,-21,3
9,32,-2,3,-1,7,33,21,3
-24,-42,-5,-1,1,-7,-31,-12,3
8,-1,5,5,3,7,-20,-1,3
4,10,3,-2,1,1,69,-58,3
-15,-21,-5,-4,-5,-14,-117,2,3
-4,6,-4,-5,-2,-3,24,-63,3
4,-6,-4,-4,-2,-9,-101,-3,3
-2,-16,-1,2,6,1,7,-15,3
3,4,1,-3,-1,0,-20,6,3
17,14,2,-1,-4,0,62,-4,3
0,19,4,7,4,10,13,42,3
-9,-37,-8,-10,-8,-6,-36,-4,3
13,5,-2,-3,1,-7,46,-9,3
5,-2,-3,-3,1,8,-6,19,3
-15,5,0,1,1,-3,6,0,3
8,24,3,1,-6,-6,-37,25,3
-30,-3,-5,2,-4,-5,-26,15,3
-28,-14,-5,0,2,5,-19,38,3
-6,5,2,-2,-3,-2,45,26,3
13,-7,-2,1,-1,3,27,17,3
-7,-24,0,-4,-3,0,25,-42,3
1,31,9,2,2,1,-57,31,3
8,-20,-8,-3,-3,-7,6,6,3
-11,0,-1,0,1,6,36,35,3
3,5,3,0,-1,-14,-65,-24,3
8,6,0,0,0,6,87,9,3
20,8,1,-1,0,1,66,-11,3
-1,-5,-1,-1,0,0,35,1,3
11,42,8,6,2,11,7,9,3
-5,-38,-6,-3,-2,-6,60,1,3
-4,-12,2,0,-1,-11,-60,20,3
1,11,-3,-3,0,0,53,3,3
4,33,10,3,4,9,-7,14,3
0,-1,-4,-1,0,-7,-62,2,3
9,44,8,2,1,2,-11,-24,3
5,-28,-5,2,4,12,6,-3,3
3,4,-1,-2,-5,-7,43,14,3
-7,14,-2,1,0,-1,-104,11,3
-9,-14,-6,-4,-5,-16,-90,13,3
20,40,9,3,2,4,15,0,3
-2,-20,-7,-4,-1,4,46,-28,3
14,8,2,2,-1,4,68,13,3
-8,-3,0,0,0,5,50,26,3
-17,-6,-9,-5,-7,-10,-17,-20,3
2,-20,-2,-1,0,-1,-6,21,3
-2,12,1,-1,-3,-5,5,-11,3
8,-2,-1,2,1,2,-18,-6,3
1,5,2,2,-1,-4,47,28,3
5,-16,-9,-1,0,-1,26,12,3
5,-1,2,1,0,4,2,-54,3
6,35,-2,-4,-1,-6,-47,-13,3
-1,-2,5,3,5,8,-21,23,3
13,20,3,-2,-2,-4,33,-5,3
-13,-30,-8,-2,-1,-1,1,17,3
6,11,-4,1,1,10,29,-7,3
-10,-20,-6,-4,-7,-11,-57,-5,3
0,-10,2,2,3,7,-18,14,3
-14,7,0,-1,1,-4,12,12,3
14,-7,4,5,3,2,-5,-13,3
-7,0,-3,1,0,-3,-20,-3,3
-3,-7,-7,-3,0,-2,-7,20,3
8,3,3,-2,-1,3,3,-22,3
-8,-10,-5,-6,-2,-4,-10,-9,3
2,3,6,6,4,3,11,5,3
-3,-7,-1,3,1,1,43,-20,3
1,15,0,0,-2,-9,-75,-56,3
-19,-60,-9,-4,-4,-18,-20,-4,3
-2,-1,-5,-4,-5,-8,-41,-32,3
20,18,13,5,5,11,-38,31,3
-5,-13,-13,-4,-7,-7,34,-14,3
-1,-1,5,3,3,8,-21,33,3
-3,-13,3,4,3,3,-58,-7,3
1,52,3,-3,-6,-10,4,-13,3
12,5,5,1,0,-1,-10,12,3
-7,-1,5,6,4,6,19,10,3
11,18,-12,-9,-7,-15,35,-41,3
-6,-5,-2,2,2,7,-10,0,3
0,0,1,0,1,0,11,-17,3
0,-8,-7,-5,0,-1,18,-5,3
5,21,6,0,-1,5,31,18,3
-4,-13,-3,-1,0,-5,-6,6,3
2,-3,-4,-3,-2,-4,12,0,3
-18,-14,-5,-3,1,5,17,0,3
-9,-17,-4,-4,3,14,33,-18,3
6,-17,-3,-3,-5,-17,-21,-1,3
13,-17,-2,-4,-6,-7,-57,38,3
15,23,7,1,2,11,44,-5,3
-6,-14,-2,-2,0,-3,-5,-38,3
-13,-18,-4,-4,-1,1,9,-29,3
2,21,5,1,1,-1,1,9,3
10,27,4,2,-2,-2,27,-27,3
6,-20,-4,0,1,4,54,38,3
-10,-32,-3,-1,4,-2,-52,-12,3
-15,-33,-2,3,-1,0,14,-29,3
6,65,5,-5,-4,-1,20,21,3
-6,-12,0,1,2,4,24,29,3
1,10,4,-1,-1,-5,-13,-5,3
3,-10,0,3,1,5,-19,27,3
27,2,-3,-3,-5,-1,-5,-7,3
14,26,11,7,1,-3,-52,-10,3
4,-5,-3,-2,-3,1,112,24,3
-12,4,-2,-2,0,8,39,-22,3
-10,-21,2,-1,-7,-20,12,-25,3
-5,4,-2,1,3,11,10,31,3
-3,-7,-6,-3,0,-12,-116,-5,3
1,9,3,0,0,3,65,9,3
9,-9,-3,5,8,23,60,47,3
-7,20,-1,-2,-3,-10,2,-27,3
-15,-67,-2,-2,-2,4,7,23,3
-1,32,-3,0,0,3,21,21,3
-14,-54,1,1,-2,-9,-128,0,3
-2,3,-1,-2,-2,-2,-3,9,3
11,16,2,-1,-1,0,-4,13,3
-14,7,0,-5,2,-5,-3,-22,3
5,-9,-4,1,0,3,11,-5,3
7,0,-1,-1,-3,-12,-30,2,3
-23,4,-9,0,7,11,18,4,3
27,-6,1,-1,1,0,-18,-22,3
-22,-28,-1,6,4,4,5,13,3
-3,3,-4,-6,-7,-3,-16,9,3
-1,24,-5,-2,-7,3,56,3,3
14,20,6,4,1,-6,-76,12,3
-16,-6,-3,-4,-1,-8,-93,-17,3
11,49,8,2,-1,-6,33,1,3
-20,-43,8,-2,-2,12,116,-20,3
4,-12,-6,-2,1,-4,1,41,3
-9,10,-2,-2,-2,-1,99,-7,3
-3,-20,2,5,6,11,69,6,3
9,31,1,2,1,-1,24,12,3
-10,-7,0,-3,-3,-1,-32,-3,3
5,-1,-2,-2,-1,-4,-1,-10,3
-2,-8,3,5,3,2,3,6,3
4,18,-2,4,-1,-1,-13,-9,3
-6,-14,-3,0,-4,-7,-7,-14,3
15,25,2,5,-1,-3,-13,13,3
-46,-16,-6,-5,-3,-10,-27,-32,3
-14,9,-13,-3,-4,-7,-51,20,3
1,-22,-6,-2,1,3,25,-14,3
-6,-64,-10,-6,-3,-4,-22,-22,3
1,-3,3,2,-1,1,29,11,3
2,16,5,-1,-1,-4,48,-23,3
5,10,0,-5,-6,-12,-64,-33,3
-46,6,-3,-4,1,3,79,50,3
31,-24,-5,-2,1,12,18,33,3
4,-24,-2,0,2,0,36,-20,3
3,42,0,-2,3,-2,-15,22,3
-4,-12,-3,-1,0,-6,39,-28,3
-10,9,-3,-8,-3,-4,-48,7,3
9,13,4,3,1,4,-26,-30,3
-7,-3,3,2,1,6,-7,19,3
10,9,-1,-3,-2,2,-47,15,3
6,6,-2,1,-2,-1,81,19,3
4,-35,-4,-3,-1,-9,-123,3,3
-15,-21,3,-2,0,-1,44,-12,3
11,28,-8,0,-1,-3,5,-10,3
2,-23,-2,-3,-4,-3,-42,-11,3
5,1,1,0,3,4,31,16,3
-16,32,7,2,-2,2,-8,3,3
42,2,2,1,-1,4,11,16,3
-10,3,-3,-4,-1,-7,-30,-87,3
23,20,2,0,1,0,10,-1,3
-9,-8,-2,3,1,1,-13,18,3
-15,-46,-2,-6,-5,-17,-18,-17,3
1,27,0,0,3,7,89,28,3
6,2,3,1,-4,-4,26,26,3
3,-29,-12,-4,-1,-1,46,-80,3
2,22,6,3,2,4,7,-12,3
-16,-15,0,1,-1,-1,-34,-42,3
-47,-25,-2,-3,3,-3,-29,-6,3
13,15,-6,0,-3,2,30,31,3
-4,-11,-1,-2,0,3,44,-11,3
7,2,3,3,1,0,-38,29,3
8,18,-2,-1,-1,1,-2,-5,3
-18,-11,-2,-4,-2,-4,-9,0,3
8,14,3,2,2,0,-19,-12,3
-9,-12,-3,-3,-3,-8,-29,12,3
19,7,5,2,0,11,69,32,3
-14,-16,2,0,-1,-4,-11,-23,3
-4,42,7,-1,-4,-7,-16,-25,3
3,-12,0,-1,5,-3,-81,12,3
-9,-27,-3,0,2,4,34,8,3
12,0,5,4,5,6,-11,17,3
-2,5,2,2,-1,6,36,13,3
4,10,-5,0,-3,-1,1,-15,3
-2,11,-2,-2,0,-5,-81,-16,3
21,0,5,2,3,7,62,17,3
-15,-9,1,-5,-3,-14,-76,-52,3
-11,16,1,2,2,2,30,28,3
-12,-13,-4,-2,-1,-4,-63,-9,3
7,26,6,1,4,10,94,24,3
-15,-41,-8,-5,-6,-13,-53,1,3
13,-10,-3,-2,-2,9,73,-7,3
-5,27,1,1,0,2,-8,-28,3
-6,0,2,0,0,5,23,7,3
6,33,1,1,0,5,20,11,3
-17,-11,3,-6,-4,-8,-26,16,3
7,-17,-8,0,-2,3,53,0,3
-2,36,-5,-8,-5,-10,28,-7,3
12,-10,4,6,7,9,-15,6,3
-2,28,-1,-4,-5,-3,62,-5,3
-7,23,1,0,0,-2,-7,-23,3
0,9,3,1,-1,1,-30,23,3
3,-32,-15,-3,-2,2,14,29,3
-12,-1,2,1,2,3,1,10,3
7,10,7,1,1,-9,-42,-22,3
4,-35,-7,-2,-1,-6,2,2,3
13,18,3,0,1,12,45,-12,3
11,-19,-7,-3,-1,-2,7,-3,3
27,4,0,2,-1,7,-15,-15,3
17,-45,-6,1,0,-2,-29,1,3
13,1,-4,-4,-5,-5,68,5,3
-17,-2,-5,1,4,-1,-51,-21,3
-1,-1,-2,-5,-5,3,60,8,3
11,16,7,5,6,11,-47,20,3
-20,-5,-7,-12,-11,-35,-75,-17,3
5,-20,-4,3,4,9,-12,-8,3
4,16,-4,-4,1,-5,-34,-5,3
3,6,-8,-5,-3,4,19,2,3
10,13,9,3,-1,-6,-27,-39,3
-5,-6,-16,0,1,2,-16,0,3
-9,-9,4,0,0,1,20,34,3
29,50,0,-2,-8,-10,25,13,3
-16,-63,-8,-1,1,0,-89,16,3
-12,25,12,0,-3,-6,81,49,3
-17,-3,4,5,1,-6,37,-56,3
-21,-3,-5,-3,-7,-5,26,-35,3
13,34,10,4,4,10,35,17,3
7,-13,-5,-4,-1,1,-33,-37,3
-60,-21,-8,-8,-2,-7,-37,32,3
14,-14,3,2,4,4,0,34,3
-21,3,-2,1,4,9,23,39,3
48,7,10,3,-5,-7,-3,2,3
2,-3,-4,-3,-4,-6,-58,-6,3
-8,-18,-3,0,0,3,-12,30,3
-3,13,-11,-6,1,1,85,-72,3
-13,-4,-6,-5,-6,-17,-93,29,3
16,15,6,4,2,2,-16,26,3
-8,-20,-3,-1,-2,-10,-87,-20,3
15,24,9,5,5,26,100,58,3
-28,-24,-10,-7,-2,1,127,-51,3
27,-8,-7,-2,-2,-8,-88,-1,3
-23,4,2,0,0,-6,29,8,3
11,7,3,6,3,4,-9,39,3
17,27,3,1,-3,-1,-14,5,3
13,-62,-3,3,2,4,45,22,3
-3,-12,0,-1,-3,-1,8,-20,3
7,-2,1,-3,-1,-10,-46,20,3
-2,23,4,3,2,9,47,37,3
10,-48,-20,-5,-2,-13,-26,-18,3
-21,-7,-4,-4,-2,-1,1,-4,3
28,9,2,0,-1,-2,12,-2,3
9,-14,2,1,-1,-2,26,28,3
-1,26,2,3,0,9,-28,38,3
5,37,-7,-9,-8,-12,-12,-2,3
-10,-8,-7,0,2,-3,-49,1,3
3,-6,0,-1,2,-6,-26,-35,3
4,25,3,-2,-2,8,80,3,3
7,-10,6,5,1,0,13,-47,3
-20,-8,-6,-3,-4,-4,-35,-15,3
4,-4,-1,-3,2,-8,-52,-23,3
-4,-5,4,1,-1,6,72,-12,3
-21,-5,-4,-1,4,1,10,38,3
-19,-3,1,0,-2,0,9,-9,3
-20,4,6,2,0,-5,-27,-14,3
-35,11,-2,-5,-7,-7,38,32,3
12,25,4,1,-2,4,-12,-11,3
11,-3,-3,-1,-3,3,-14,5,3
0,-3,-2,-2,-1,5,-4,-19,3
-21,12,5,1,6,4,53,-20,3
-12,-1,-2,-2,-2,-4,-6,10,3
0,-2,3,3,4,4,-16,0,3
-19,-9,-3,0,2,5,4,44,3
11,27,-5,-4,-7,-22,-55,-10,3
5,-3,2,-1,4,4,0,-51,3
-21,-14,-6,1,2,10,56,17,3
-3,-6,1,3,0,1,19,21,3
50,16,5,1,1,5,-30,-55,3
-5,-16,-1,-1,0,1,28,-25,3
-12,-9,1,-1,-1,-8,-35,5,3
16,26,-15,-3,-1,0,-23,-25,3
-2,-44,-7,-4,5,-3,23,26,3
-2,-10,-3,2,-1,-2,25,33,3
6,-36,-11,-11,-8,-3,74,-84,3
4,-2,2,0,-2,-4,-62,26,3
-6,28,7,4,3,13,78,23,3
-9,-24,-4,-4,-1,-9,-74,20,3
-8,25,7,4,1,-3,-13,10,3
23,7,7,4,-2,7,30,-34,3
1,3,-1,-3,-5,-5,-32,1,3
-11,0,2,2,2,6,-3,-9,3
-5,4,2,0,-2,-3,86,4,3
14,-5,1,0,-2,-15,-78,-4,3
-1,-4,3,2,-1,4,84,23,3
12,-7,-7,1,5,5,5,-17,3
8,7,0,-2,-1,6,53,12,3
-21,-19,-4,-3,1,-1,-32,2,3
-9,-8,17,5,0,10,-34,5,3
2,-43,-15,-6,-1,-5,15,36,3
23,18,3,2,0,-8,-54,-16,3
-19,-2,1,-2,0,3,4,-9,3
-5,0,0,-4,-5,-15,-74,-6,3
-3,11,5,1,-1,9,17,3,3
-11,-7,0,-3,2,-7,-28,11,3
5,39,-1,-1,0,2,55,42,3
8,-9,-2,2,4,13,17,3,3
12,49,6,2,-4,-15,-14,-27,3
-19,-69,-12,-5,-2,-4,-13,21,3
15,9,6,3,-2,6,41,28,3
-14,8,-3,0,-3,-1,-14,38,3
7,3,-1,0,-4,2,26,0,3
11,30,0,-1,0,1,-3,20,3
11,-11,7,0,3,2,16,-15,3
-4,-2,-8,-1,-2,-5,-46,-9,3
-14,-12,-1,3,-1,-7,-23,53,3
-6,7,-4,1,0,-3,4,-25,3
-5,-26,-5,-3,-2,4,5,-29,3
-25,13,-4,-2,2,1,102,23,3
3,15,5,1,-2,-6,0,1,3
3,4,1,1,0,4,-28,7,3
-12,-8,-5,-5,-4,-4,69,6,3
18,6,4,3,3,4,18,-33,3
4,-10,-3,-3,-1,7,-2,-3,3
1,-15,-6,-1,0,0,-14,-16,3
-5,-20,-6,-4,-4,-20,-94,-25,3
3,4,-4,-2,1,3,5,28,3
1,-9,2,-1,3,6,16,-22,3
-25,-5,5,-1,-1,-3,9,-15,3
-12,4,-9,-3,1,9,20,11,3
8,13,0,-1,0,-15,-92,-1,3
-7,2,-2,-3,-3,-3,14,-33,3
-1,0,1,-2,-2,-5,-71,7,3
8,17,6,2,4,4,40,-11,3
1,-28,-4,-1,-1,2,-2,6,3
-17,-3,-2,0,1,-1,25,19,3
1,11,-1,0,-2,-1,7,-20,3
5,-12,1,4,2,1,-19,-18,3
4,11,-2,-2,-3,-6,-8,-10,3
0,4,0,-1,-2,-7,2,5,3
6,4,0,0,2,3,39,10,3
1,2,2,2,1,-2,-19,0,3
-8,-12,-2,-1,-3,-2,52,-4,3
-6,-6,-2,0,-3,2,-3,-14,3
-11,-1,-5,-4,-3,-7,-15,-39,3
12,-1,2,2,1,8,35,10,3
14,13,0,-2,-3,-4,31,-10,3
13,-3,0,-3,-1,-6,-66,35,3
3,12,-3,0,-1,4,76,31,3
-6,12,6,4,0,-2,6,19,3
6,-6,-6,-2,0,8,33,-48,3
-8,-30,-11,-3,-4,-3,-37,-41,3
2,9,4,2,3,-2,-33,-8,3
-6,-5,-1,0,1,3,27,2,3
-4,8,1,0,2,-2,-48,6,3
11,4,3,0,1,2,82,18,3
-5,-6,-5,-2,-2,0,-55,-18,3
-7,-2,-6,-5,-7,-13,-75,-15,3
-11,-10,-2,0,-2,2,51,-10,3
1,5,1,2,2,2,5,5,3
-1,-1,2,0,0,3,24,17,3
-24,-9,-5,0,1,6,26,-16,3
2,1,-3,-1,-2,-7,-100,-2,3
-7,-18,-2,-2,0,3,21,-4,3
21,6,-2,4,1,4,25,-27,3
-16,4,10,3,-3,-2,1,-39,3
-3,-11,-10,-5,-1,-3,-56,-39,3
20,8,-1,1,-2,4,47,-1,3
2,8,-6,-5,0,-8,-76,16,3
-6,-34,-4,-1,-1,0,41,20,3
19,28,6,1,1,4,44,17,3
-11,-1,-3,-1,1,-2,-26,-3,3
2,16,7,0,-2,4,31,-38,3
1,-7,-6,-3,-3,-13,-73,-13,3
-4,-6,3,3,4,7,23,53,3
-4,0,-3,-4,-4,-13,-8,-31,3
2,0,2,0,0,3,30,-4,3
7,9,-1,-1,1,1,15,21,3
-19,-11,-4,-3,-2,-7,5,-22,3
0,-23,-1,0,4,7,35,12,3
10,0,-1,1,-3,2,-18,24,3
3,-17,-9,-4,-1,2,54,-6,3
-9,10,-2,-3,-4,-8,-31,-14,3
-13,-1,2,1,0,-7,-39,36,3
5,6,0,0,-1,3,49,-11,3
6,6,2,-2,0,4,-28,23,3
-3,-9,-5,-1,1,2,-4,-9,3
-1,8,0,-2,-2,1,-11,-6,3
-17,-14,-2,-1,-4,-9,-30,-13,3
3,3,3,1,1,-3,-13,13,3
7,3,4,2,4,6,35,15,3
6,-4,3,3,-1,1,-24,5,3
2,-2,-1,0,2,6,16,47,3
0,0,-4,-2,-6,-6,77,-4,3
2,7,0,0,-2,-5,80,-5,3
8,-17,-2,-3,2,0,-32,-4,3
1,-3,8,1,1,4,-2,-23,3
6,10,-2,-2,2,3,-43,8,3
1,-14,-8,0,1,2,-18,7,3
-8,7,1,1,-1,1,-24,-12,3
10,-1,0,0,0,2,19,35,3
5,13,4,2,-1,3,13,-21,3
-25,-14,-2,-3,-1,-7,-21,-39,3
5,18,1,0,0,4,7,3,3
-14,-18,-11,0,-1,-8,33,33,3
-11,23,-1,0,2,1,-11,39,3
5,7,3,0,-4,0,-1,14,3
7,27,0,-1,-3,0,41,8,3
-7,-1,1,-1,-1,-8,-29,11,3
-1,0,1,0,-1,0,-9,-8,3
-9,-3,3,2,0,4,45,16,3
0,2,-3,-2,-3,1,87,14,3
-10,-28,-5,-1,2,-1,-32,2,3
0,-15,-7,-3,-1,-1,2,-54,3
12,4,2,-1,0,0,-49,37,3
1,-1,0,-1,0,-4,-66,-7,3
3,18,2,-1,0,1,46,16,3
-8,-21,5,0,-2,-2,-6,6,3
-4,13,-5,-2,0,4,40,3,3
-5,-22,-2,0,4,-7,-46,12,3
20,10,2,3,2,1,3,-11,3
2,7,-1,0,1,1,-33,27,3
18,6,4,3,-3,0,32,-12,3
-5,13,3,1,2,2,-14,-42,3
-9,-16,10,0,-4,0,59,2,3
28,12,-14,-3,1,-7,-43,21,3
-13,-34,-1,-2,-2,0,27,-12,3
-10,-3,-1,-1,-1,-2,-56,40,3
-1,11,5,2,3,6,15,-39,3
4,-17,-3,1,0,-2,10,-30,3
1,-2,0,-1,1,-1,-12,-9,3
6,8,-1,-1,-1,-6,65,2,3
-7,-10,-6,-2,-1,-2,-4,-6,3
-4,31,4,-1,-1,1,-3,36,3
4,-15,-1,0,0,-3,-36,5,3
-21,-21,-9,2,1,4,41,-17,3
-1,-14,-8,-6,-2,4,10,-8,3
-17,-10,-1,-1,-4,-14,-47,-33,3
-7,8,-1,-2,-1,1,53,23,3
-3,3,2,-4,-5,-6,-2,12,3
-14,4,-3,-2,4,-1,5,9,3
1,-2,2,-1,1,9,52,29,3
14,4,0,-1,-1,-5,-87,-8,3
5,8,2,-2,0,2,-7,-9,3
7,-8,-7,-3,-2,-4,-62,39,3
-1,-11,-7,-5,-4,-1,62,12,3
-7,-11,5,1,-1,-4,-61,-13,3
-7,-13,-20,-7,-3,-3,31,-10,3
16,12,7,5,2,2,-28,10,3
13,11,6,4,3,8,7,-3,3
-7,5,-2,-3,-3,-9,-6,3,3
5,1,6,-1,1,4,0,1,3
-13,-39,-9,-4,-2,-11,-74,-7,3
-9,-1,-5,0,0,3,33,-16,3
-7,8,4,1,1,-1,-17,-21,3
6,9,5,1,0,2,16,-3,3
14,27,5,4,2,9,106,10,3
-9,-9,0,-2,-1,-12,-86,-8,3
17,0,-2,5,6,14,27,24,3
-18,-23,-4,-1,-6,-6,19,-23,3
47,35,3,2,1,1,10,36,3
5,-5,0,3,2,5,-42,9,3
-3,19,10,-3,-2,-7,36,-4,3
-3,-27,-6,0,0,-11,-97,3,3
-37,2,3,2,0,6,61,-13,3
1,19,3,0,0,2,-47,-7,3
11,1,-5,-2,-1,-3,-37,-28,3
15,-9,3,-2,1,4,25,7,3
-7,-14,-10,-5,-2,-8,3,-11,3
7,3,5,-2,1,1,45,29,3
-19,-4,-12,-6,-3,-1,-10,-20,3
9,12,3,0,-1,-4,5,15,3
1,13,1,-1,-5,-1,-14,-25,3
5,-8,1,4,1,4,45,24,3
-11,-21,-6,-1,-2,-2,-24,7,3
10,11,2,0,3,4,6,-8,3
-6,-6,-2,-1,2,4,20,-16,3
-12,12,5,-3,-4,-10,-77,-8,3
10,-4,-6,2,-2,3,21,-11,3
2,42,7,1,-1,-7,-25,-37,3
-5,-42,-5,-2,-1,-9,78,21,3
-23,20,-5,-4,-1,-3,63,-50,3
-1,-54,-5,0,2,8,-55,-9,3
18,56,3,5,2,1,29,47,3
-22,4,0,-7,0,-11,-112,-1,3
5,-23,-7,1,-2,1,44,-10,3
-2,11,6,1,2,3,13,20,3
7,-3,0,2,3,5,13,8,3
-12,10,2,-2,-5,-9,-85,-17,3
7,27,9,0,0,4,53,20,3
5,-22,-3,-1,1,-5,-16,10,3
-15,-38,-3,0,-2,2,-9,-5,3
-4,14,-4,1,-2,-2,-12,-2,3
-2,-13,-4,-1,2,4,0,22,3
0,15,0,-1,-3,-2,26,-16,3
-20,3,-2,-4,-3,-5,-17,-17,3
7,-5,3,0,-1,-1,26,-20,3
-11,-11,-4,-1,0,3,-18,17,3
13,25,9,5,0,0,99,4,3
-21,-21,-4,-6,-5,-10,-75,-24,3
8,37,2,4,0,6,103,5,3
-5,-58,-18,-7,-2,-11,-21,-16,3
0,12,-11,-2,-4,0,-17,23,3
3,-6,3,0,3,3,16,-10,3
-1,-10,-5,-4,-4,-15,-103,-2,3
14,31,8,4,-2,5,91,21,3
-16,3,2,0,1,-2,16,-26,3
4,-14,-3,3,2,4,32,12,3
4,16,-1,-6,-6,-7,10,19,3
-14,-14,-1,0,2,2,-29,-15,3
-23,-9,-6,-5,-1,-3,-31,13,3
-1,23,3,1,0,4,28,-10,3
-23,-62,-14,-5,-1,6,-35,-43,3
-16,8,4,2,3,-2,-1,-12,3
-2,8,-3,0,0,6,63,11,3
12,7,1,-3,-2,-12,-62,8,3
7,0,3,2,1,5,43,27,3
4,-15,-5,-2,1,-1,19,-7,3
10,13,4,-4,-2,-4,13,-11,3
-5,-9,-3,2,2,1,-25,5,3
8,13,2,1,-1,0,14,25,3
-1,-2,-1,-2,-3,-1,39,-24,3
0,9,0,-4,-2,-7,-17,30,3
1,-25,-6,-3,-6,-3,56,-8,3
5,4,1,2,5,11,-33,-24,3
13,13,2,-3,-7,-17,18,2,3
-4,-17,-4,-1,1,5,2,2,3
-3,5,-2,-4,-1,-1,69,-31,3
8,11,5,2,2,-2,-98,17,3
5,-27,-3,3,-1,2,-51,-1,3
6,60,-3,-8,-4,-10,-12,-2,3
6,-8,3,3,1,2,20,2,3
23,46,11,0,0,1,38,-8,3
-18,-29,-20,-7,-3,-4,-42,-14,3
16,-8,1,-3,-2,0,12,17,3
3,6,2,0,0,5,-11,12,3
10,-2,-6,0,-1,-4,-6,16,3
-5,3,8,4,-2,4,-27,41,3
0,0,2,3,4,3,27,-23,3
-2,-13,-6,-3,-3,-9,-45,36,3
8,3,2,0,2,1,1,-25,3
2,25,-1,-2,0,-1,-38,2,3
-4,0,6,3,0,3,34,5,3
7,3,0,-1,1,2,55,9,3
-15,-27,-3,0,3,-1,-47,-11,3
-11,2,4,-2,-3,5,17,-23,3
0,-17,-7,-1,0,0,13,-22,3
-4,6,3,0,-4,-7,-27,-6,3
-26,-10,-7,-5,-1,-4,-16,-32,3
7,1,2,0,4,8,98,4,3
-17,-5,1,-2,-1,-6,-82,-8,3
6,-1,2,1,2,5,13,23,3
-14,-22,-13,0,-4,-2,18,3,3
9,5,-5,-1,-2,-2,-9,-3,3
-7,2,-2,1,2,-6,-21,9,3
-8,3,-4,-1,2,4,20,-30,3
-1,7,5,-1,0,-1,32,-20,3
8,2,6,2,1,3,-34,14,3
0,-5,-2,1,-4,-5,13,2,3
-24,-41,-3,-4,3,5,24,-4,3
0,-28,-12,-3,3,7,33,14,3
6,9,1,4,1,1,-24,-2,3
7,-3,2,1,0,1,-5,-4,3
9,4,6,3,-2,3,12,11,3
-3,6,0,0,-1,-2,-17,10,3
15,5,1,2,2,4,43,6,3
-7,-11,-5,-5,-3,-3,-26,-5,3
2,10,0,-4,-3,-3,9,-16,3
-1,-1,4,-1,-1,-4,-16,19,3
-15,2,-4,-3,-2,-3,0,-35,3
10,-4,9,3,3,7,7,21,3
17,24,1,0,2,3,10,36,3
-2,-1,-4,-2,-5,-12,-58,7,3
-5,-1,0,1,-1,2,3,22,3
-6,-22,-5,0,-2,-4,27,4,3
-12,13,-2,-2,0,-2,23,-30,3
-2,16,8,5,2,6,42,38,3
-20,5,-8,-3,-4,-8,-12,2,3
-5,-39,-7,-2,-3,5,53,3,3
21,48,7,1,2,-5,-64,4,3
0,-14,-5,-1,-1,1,26,-10,3
5,11,1,-5,-3,-9,-38,-56,3
2,6,-2,0,-1,-5,17,-8,3
-8,-18,-6,-1,0,2,-49,8,3
5,6,-2,-1,-4,-4,-21,-11,3
9,0,1,-1,-1,5,49,12,3
-13,4,0,-2,1,0,-22,11,3
4,-3,6,2,2,5,9,-15,3
-4,8,0,-1,-2,0,36,7,3
-7,-10,2,3,1,1,-6,26,3
-19,2,-2,-2,-1,-3,-29,-9,3
1,-6,-6,0,-1,-4,14,13,3
3,-4,2,-2,-2,4,40,14,3
4,-7,-2,-2,0,-2,-7,-13,3
23,9,4,3,4,9,-3,14,3
10,-2,-3,0,-1,-6,-52,8,3
-4,1,2,2,0,2,-3,-8,3
3,-15,-9,1,2,-3,29,-5,3
7,23,2,0,-3,-4,-69,6,3
-7,-27,-6,-2,-3,2,-7,0,3
5,12,-1,-1,0,-1,40,-8,3
-10,0,3,0,4,8,1,-8,3
-23,-2,-3,-4,-4,-4,-12,5,3
1,-58,-15,0,-4,-1,21,-2,3
-18,-2,-9,-6,-5,-16,-33,-73,3
11,-2,-1,-1,-2,-7,-66,-35,3
2,2,0,-1,-1,2,22,2,3
-12,-8,4,0,0,4,47,11,3
-6,-36,-7,-2,-1,-12,-97,-35,3
-2,-7,-1,0,0,6,14,1,3
7,22,2,1,0,-5,85,-10,3
0,9,1,-3,-1,-5,-4,5,3
10,-8,7,3,0,13,67,21,3
1,6,-13,-3,-1,-7,-22,8,3
3,-15,-3,1,1,-3,-87,-22,3
5,27,1,0,1,1,5,14,3
17,0,-2,0,-4,-1,22,46,3
0,-12,6,-1,-2,-2,10,-23,3
-34,11,4,1,1,-4,-1,39,3
25,10,1,1,0,3,4,-27,3
3,8,3,2,3,2,-72,2,3
1,-1,0,-4,-7,-4,88,18,3
10,-3,2,0,1,3,-50,8,3
-5,1,0,-2,-5,-12,-39,-11,3
-6,-12,-7,-5,1,2,30,40,3
5,13,4,1,0,2,-24,-4,3
0,-75,5,1,0,3,25,17,3
-12,25,-3,-5,-1,-9,-30,-21,3
11,17,-2,1,0,5,49,7,3
-3,3,0,-2,-1,-6,-34,25,3
6,-15,-4,0,-2,-1,-5,-32,3
-8,-2,4,2,0,2,29,9,3
-6,5,3,0,-1,-4,-9,-9,3
-11,9,7,1,0,0,5,8,3
10,17,-2,0,-2,2,60,-6,3
19,35,-2,-3,-1,-7,-48,16,3
6,4,0,0,0,5,27,1,3
-3,-2,0,2,2,2,5,0,3
44,26,10,7,5,12,18,57,3
-17,-12,-3,-8,-5,-9,-45,-14,3
8,1,-2,-1,1,6,63,-1,3
3,-6,1,1,-1,-3,-21,35,3
2,12,-4,-1,2,-1,-49,10,3
-7,-13,-3,-1,0,3,51,-1,3
-3,13,7,0,-3,-5,-16,-15,3
2,-15,-2,2,-1,7,14,23,3
-10,16,-3,-3,-5,-6,-16,-48,3
-4,19,-3,-2,-2,-2,8,-2,3
-6,-45,-4,-1,0,-3,-27,-9,3
-9,15,-2,-3,-1,-6,2,-25,3
-16,-14,-3,-4,-5,-7,8,-10,3
3,13,0,-1,-1,1,12,29,3
-10,-19,-6,3,1,1,-4,20,3
15,5,-2,-4,-1,8,17,44,3
-17,-2,0,-2,3,-6,-29,-2,3
9,21,8,5,4,4,42,32,3
-17,-45,-5,-5,-3,-13,-23,-12,3
14,-10,-1,3,3,8,13,20,3
-3,8,-1,-3,-4,1,-53,-21,3
-6,-8,0,-1,-2,-6,14,-5,3
3,22,8,3,3,7,-3,8,3
-7,9,-7,-5,-3,-14,-59,-80,3
1,-11,-2,-2,0,-3,-35,-9,3
-4,-9,1,1,1,7,61,-25,3
21,13,-2,-2,-4,2,24,2,3
-8,-18,-2,-2,0,-4,7,3,3
5,-28,-9,0,-4,1,-5,6,3
-1,-7,-13,0,0,-3,-28,1,3
-1,19,2,0,-2,-6,-16,14,3
7,8,5,3,5,4,13,20,3
-10,1,1,1,1,0,28,1,3
2,-15,2,1,2,11,14,18,3
-15,-2,-4,-3,-5,-10,-23,-11,3
-4,-11,-3,2,0,4,-30,-6,3
-6,9,0,-4,-4,-7,14,-14,3
-29,-31,-11,-3,0,1,-54,-21,3
-1,16,4,0,2,-2,-15,-1,3
-6,0,0,-3,-7,-3,51,5,3
-8,0,-2,-3,0,1,46,-5,3
20,3,-1,3,2,4,1,12,3
1,6,2,-1,-3,0,-16,-26,3
-18,-5,-2,-2,-3,-8,-27,1,3
-2,0,-1,0,1,1,-11,-12,3
-8,-14,1,-2,-2,-2,32,-1,3
3,16,-4,-3,3,-2,-42,9,3
0,23,0,-3,-3,-4,13,-16,3
-2,5,7,4,3,0,31,11,3
8,-35,0,1,-2,0,-4,-2,3
-7,5,-3,-2,-2,-2,0,23,3
1,-2,2,-2,1,8,95,12,3
19,10,-2,-1,2,-2,18,19,3
12,19,4,-1,1,3,5,-18,3
-8,-13,-2,-1,-1,-9,-14,-21,3
16,5,2,1,2,1,-31,58,3
9,43,14,6,-1,-1,-5,9,3
-13,-41,-9,-4,3,1,50,29,3
7,6,1,-2,0,-5,-75,-3,3
-2,-4,-3,1,1,3,-23,-21,3
-1,-15,-5,-2,1,-1,-1,-25,3
1,28,5,0,-4,-3,29,-17,3
-9,-12,0,3,2,4,-52,27,3
16,-9,-7,-3,-8,-8,-11,-10,3
-8,17,2,-4,-2,-3,-10,-20,3
-4,0,-1,2,0,-3,-13,5,3
5,2,-2,-3,-2,3,67,2,3
-1,7,4,2,0,-2,-6,-21,3
-1,-9,-2,0,0,-1,16,3,3
7,13,0,-2,-3,0,24,3,3
-5,-2,-1,1,0,-1,-44,-10,3
25,16,7,3,3,4,61,17,3
-11,-8,-4,-1,-2,-8,-77,14,3
-23,-19,-7,-2,-4,0,6,-34,3
6,8,3,-1,0,7,77,10,3
-10,-5,-3,-5,0,-3,-10,-4,3
7,7,1,-2,0,2,12,33,3
13,-15,-4,4,1,-2,-57,-6,3
-4,0,-2,0,0,0,57,10,3
-20,31,5,-2,-3,-11,-112,-69,3
1,-26,-5,1,1,4,45,19,3
3,0,2,3,2,8,9,28,3
0,2,-9,-5,-5,-7,-16,7,3
-10,-6,-2,2,5,6,-9,30,3
-8,-10,-6,-2,-3,0,36,-13,3
-1,16,5,-1,-1,-8,-105,3,3
-6,3,1,0,0,6,61,-20,3
-5,-11,-1,0,-2,-4,-8,-27,3
4,0,-3,0,0,2,-14,1,3
0,4,0,-3,-1,-1,11,-2,3
-8,5,2,0,2,8,7,-4,3
-10,-22,0,0,-2,-9,72,0,3
8,27,-4,-1,5,2,-21,-13,3
-1,14,1,-2,0,-9,37,-19,3
-19,-5,-4,-2,-2,-9,-5,-38,3
-2,-14,-2,0,0,-1,-62,9,3
6,-6,0,1,0,7,30,13,3
-1,13,-2,-3,-4,-9,-23,-2,3
11,10,5,2,-1,5,0,19,3
9,-14,-4,-2,0,0,0,9,3
-6,-8,0,-2,-4,-8,-7,-26,3
7,2,-1,1,3,-4,-5,-19,3
17,-6,2,2,1,7,22,-3,3
-23,37,-1,-7,-5,-9,-38,-13,3
-21,-30,-4,-2,-1,-1,13,10,3
12,15,5,2,1,2,16,13,3
7,-9,-1,-1,-2,-5,4,-1,3
13,-7,-1,-1,1,5,34,3,3
-4,3,-1,-2,1,-1,-65,4,3
-8,5,0,-1,-5,-8,-38,-8,3
-7,-15,1,2,-2,1,13,25,3
5,14,-7,-1,-3,-2,-69,19,3
11,-2,5,4,2,7,59,-10,3
-4,-9,-2,-6,-5,-12,-84,-18,3
6,6,-1,-2,-1,1,74,9,3
-2,-37,2,-1,2,1,-42,-9,3
4,12,8,0,-2,-6,-70,1,3
-18,3,-10,1,4,12,72,9,3
1,5,5,1,0,-5,-54,18,3
27,15,-8,-2,-3,-5,63,24,3
-21,-19,-1,1,4,2,25,-9,3
-2,-6,2,-5,-3,-1,-13,2,3
2,-19,-5,-1,1,4,-4,-3,3
-3,-2,1,1,3,12,51,-5,3
-2,5,-5,-2,-3,-11,-60,3,3
9,2,2,2,0,3,43,18,3
0,-4,-3,-2,0,-3,5,-17,3
-8,-8,-1,0,0,1,1,-24,3
-1,6,0,0,-3,-1,85,39,3
-4,-13,0,1,1,-5,-52,-69,3
-32,2,-9,-7,-6,-11,-24,-21,3
-7,-2,5,3,3,5,41,-6,3
10,10,-1,-5,-3,-4,2,6,3
6,-15,-2,1,2,8,1,17,3
2,-9,-5,-1,-1,1,18,-17,3
0,-2,2,0,0,2,-6,10,3
2,27,0,-2,-3,-4,9,-29,3
-12,-26,-12,-5,-1,2,55,18,3
10,7,6,2,1,-2,-69,4,3
-1,-24,0,2,1,4,9,33,3
5,12,-6,-4,-1,3,14,20,3
24,8,2,2,0,3,80,26,3
-7,8,2,1,0,-7,-76,10,3
5,-1,-2,2,1,-8,3,-20,3
-9,-15,-4,0,-2,4,25,3,3
-4,6,3,1,0,-3,0,24,3
-4,7,0,1,2,7,31,1,3
-2,11,3,-2,-2,0,42,-7,3
0,-52,-7,-2,1,-8,-75,-20,3
-3,15,3,0,1,3,99,-16,3
8,-29,1,3,4,6,-47,11,3
-14,6,-6,-5,-6,-35,-98,-69,3
-5,19,4,0,2,6,52,-10,3
-6,18,0,-2,-1,0,-11,3,3
6,-15,-9,-2,-2,5,36,-4,3
9,2,3,0,-3,2,29,17,3
4,3,0,1,-3,-3,-33,6,3
-3,-14,-2,1,2,-3,-62,-6,3
18,54,6,-3,-3,-4,29,-24,3
-16,-4,0,1,-2,0,-7,46,3
11,-1,-4,-1,0,-1,20,19,3
-21,5,1,-4,-5,-8,-45,-66,3
-3,-18,-5,0,0,11,119,17,3
-7,0,-5,-4,-6,-16,-67,-2,3
15,15,4,6,6,7,88,18,3
-16,-52,-5,-3,-5,-3,65,9,3
8,15,3,1,2,3,2,0,3
-16,5,-6,-1,0,6,-12,-27,3
-10,-14,-2,1,1,0,-14,-14,3
4,11,0,3,0,0,-18,-14,3
-9,-12,-3,-2,-3,-10,-49,-7,3
9,-9,0,-2,2,9,45,7,3
7,6,3,-4,-3,-6,-29,14,3
-2,4,-6,-1,1,3,-11,23,3
7,2,1,-2,-1,-4,9,-9,3
6,2,0,-1,1,6,1,6,3
-4,1,-1,-1,-2,1,36,-1,3
0,-10,2,1,-3,-3,-87,-20,3
-1,-4,-1,-1,2,1,26,-27,3
-2,3,-1,-2,1,-3,-25,16,3
-13,-7,-6,-4,-1,2,5,-5,3
28,-24,7,4,3,5,53,43,3
-12,-13,-5,-7,-7,-17,-8,-23,3
-19,27,-1,0,4,13,65,1,3
4,-19,-5,0,1,2,-31,-12,3
-8,13,-2,-4,-4,-10,-83,-10,3
0,13,0,0,-2,2,-14,2,3
16,-25,8,0,-2,-4,-3,0,3
-6,2,-3,1,0,1,14,-10,3
5,14,-1,0,3,7,2,-12,3
7,4,3,1,-1,-2,13,11,3
6,2,0,-1,0,-1,-20,1,3
-5,-3,-1,-1,-1,-5,-4,-37,3
10,3,1,1,-2,-2,8,34,3
-13,-3,0,0,1,3,1,-2,3
3,-17,-4,-1,-1,3,-1,-15,3
13,10,6,1,1,1,11,6,3
-4,8,-1,-1,-3,-3,11,20,3
-11,-39,-4,-1,0,4,-31,-21,3
-10,-2,1,0,0,1,95,41,3
13,-1,-3,1,1,-4,-93,27,3
-14,10,2,-2,-4,-2,19,-31,3
8,-10,-2,2,-2,1,7,10,3
-13,-23,1,2,-3,6,45,3,3
-3,-2,-14,-5,-4,-9,-24,-14,3
-5,-14,0,-1,2,3,2,18,3
-3,-8,-4,-1,-1,0,-14,-7,3
0,4,7,2,1,6,11,-4,3
10,-9,8,5,0,-2,47,25,3
-10,3,-10,-8,-6,-11,-27,-12,3
2,19,5,4,3,6,14,16,3
25,39,2,-3,-3,-11,-31,-20,3
-13,-39,-2,-5,-2,2,46,-3,3
-2,-2,3,3,1,3,0,-30,3
-2,8,3,-2,-2,-7,-6,3,3
7,7,-2,1,0,0,-16,-25,3
0,6,3,-2,-1,-1,-23,-10,3
-5,6,-2,0,-1,1,30,22,3
-10,6,1,-2,-3,-4,-6,6,3
13,6,-6,1,1,4,-24,18,3
-2,19,3,-1,-3,-4,13,13,3
-1,-3,3,1,2,1,6,-1,3
2,10,2,2,2,4,-9,27,3
-5,-3,0,1,-2,-12,-93,22,3
-6,3,0,-2,0,4,57,-3,3
12,11,1,0,0,-3,57,-3,3
-3,1,-4,-7,-2,-1,22,-50,3
6,-10,-3,-1,2,2,-5,-9,3
-5,6,3,0,1,4,-35,-29,3
-11,-8,-8,-1,-1,-3,-6,-9,3
-11,-29,-5,-3,-5,-4,14,-4,3
9,-3,-6,-4,-4,-1,38,-16,3
3,5,-2,-2,0,-5,-15,3,3
4,2,7,2,4,4,4,14,3
-2,-8,-4,0,0,-5,-24,3,3
-8,-9,-4,-2,0,5,29,16,3
5,20,5,3,0,-1,7,6,3
10,-16,-16,0,0,5,37,42,3
1,-38,-4,1,-1,1,-61,-1,3
-15,-20,-3,-3,1,-6,87,31,3
-1,2,-2,2,0,1,-15,-6,3
-3,10,5,1,1,-2,-29,-3,3
-3,5,3,1,2,0,-5,-6,3
3,-2,0,1,-1,2,10,1,3
-3,-7,-2,-2,-4,-7,-57,-17,3
-12,-7,1,0,1,8,87,8,3
10,24,1,-2,-7,-13,-94,15,3
3,5,2,0,0,0,-11,-7,3
-22,-3,-2,-2,0,-2,18,7,3
4,7,3,-1,0,3,-44,-18,3
-3,-14,0,1,3,3,38,3,3
-7,4,4,1,-1,-2,-42,11,3
2,-12,-10,-4,-1,-6,-80,-39,3
-10,-9,-5,-3,-1,-6,3,-34,3
-6,1,-1,-1,0,8,82,-5,3
-9,-12,4,-1,-1,-5,-70,-14,3
-13,-18,0,2,3,3,24,-25,3
8,22,0,-2,-1,-8,-45,27,3
1,-3,-2,-1,-2,-3,3,-16,3
0,5,0,-3,0,-1,-12,-9,3
-1,7,3,-3,-1,1,23,9,3
-1,-5,0,1,0,1,-14,16,3
4,15,1,-1,0,2,9,15,3
-3,1,-1,1,-2,-2,-3,-7,3
-2,0,0,-1,-4,0,72,21,3
-1,-4,-2,-1,0,-2,-26,-32,3
1,15,2,1,1,-2,13,12,3
2,6,1,2,3,8,12,17,3
1,0,-2,-5,-3,-6,58,24,3
4,-1,-1,-4,-4,-3,-13,-56,3
12,38,1,1,0,-9,-85,38,3
-3,-11,-4,-2,0,0,26,-10,3
9,5,2,3,2,7,-11,-30,3
-7,-2,2,-1,-1,0,14,17,3
-6,6,-1,0,2,-2,1,16,3
18,6,7,-1,-4,-3,10,25,3
6,7,-4,-1,-2,-2,-23,13,3
-13,1,3,-2,-2,-5,18,11,3
6,-7,3,-1,-2,4,33,-14,3
-3,-3,-2,3,1,4,7,-7,3
-1,-18,1,2,2,8,25,5,3
-1,16,1,-3,-2,-4,-1,7,3
-3,-4,-3,-2,-2,-8,-62,-16,3
9,12,-7,0,1,4,20,-9,3
3,-26,-1,0,0,1,-21,25,3
4,-14,-1,3,3,4,-5,-6,3
-5,-7,-10,-4,-3,-3,21,-21,3
-7,-6,-3,-2,-3,-2,-13,-32,3
10,38,1,-1,0,3,43,-10,3
1,-18,-1,0,-1,-6,-55,24,3
-10,-5,-1,-4,-3,-4,-49,-5,3
0,11,2,2,2,2,39,-3,3
-10,-9,-7,-3,1,-2,-5,5,3
4,1,1,0,-2,-4,11,3,3
1,-1,-3,0,-1,10,49,14,3
-10,-2,2,-3,3,-2,-9,-15,3
1,-7,8,3,-3,-3,-27,37,3
-17,-38,-21,-3,1,3,29,-60,3
1,-9,0,0,-1,-9,-18,-17,3
-8,17,1,-1,0,2,-40,-39,3
-6,-3,-3,-2,-6,-11,-15,8,3
0,3,6,4,0,10,-8,28,3
0,-15,-12,-1,4,6,84,-10,3
-8,-20,-7,-4,-1,-8,-118,14,3
9,10,-1,-4,-3,-10,-8,-11,3
7,17,-2,1,1,6,-1,16,3
-8,5,1,-2,-4,-6,29,-12,3
8,6,2,4,0,3,19,20,3
2,-6,-4,-1,0,4,35,0,3
5,7,3,0,-2,-6,-22,29,3
18,16,3,-1,3,5,52,18,3
-8,-10,-3,-1,-1,-5,11,0,3
0,8,5,0,0,-1,-69,-2,3
-1,-10,-6,-3,-2,4,113,7,3
11,4,5,3,-1,-8,-71,18,3
13,26,3,1,-3,2,107,-23,3
5,-12,-7,-3,2,1,-33,8,3
-12,11,4,-2,0,-10,-98,2,3
0,2,1,2,1,10,3,3,3
3,-9,-1,-1,-3,0,10,18,3
-2,29,8,2,1,1,8,-7,3
3,-16,6,2,-1,5,40,11,3
-13,-8,0,-3,-4,-10,-6,-16,3
-8,-31,-10,-5,0,3,8,-11,3
-9,-2,-2,-1,1,-4,-3,-48,3
4,4,2,-2,-3,-1,40,23,3
0,10,5,-2,-1,2,-21,-6,3
-1,5,0,0,-2,1,65,7,3
3,4,0,0,-2,-3,20,-14,3
4,-55,-20,-5,-6,-8,33,-9,3
1,17,3,4,3,4,9,3,3
-2,-11,-6,-2,-3,-5,-35,12,3
2,-9,0,2,4,7,31,2,3
-3,25,8,1,1,0,2,-1,3
-8,-3,-4,-3,-2,1,25,-23,3
3,-9,-1,2,-1,-2,-37,-14,3
-7,2,0,-4,-1,-2,42,13,3
7,15,0,0,1,2,-23,-11,3
4,9,7,-1,0,-5,-36,-11,3
-2,8,0,1,0,-7,-80,-3,3
2,-4,-2,-1,-2,-8,25,-7,3
18,25,-1,0,1,-7,-31,-59,3
-1,-15,-2,0,-2,6,48,2,3
-11,13,3,-1,-1,2,-12,-5,3
-3,-2,-4,-1,0,3,22,6,3
3,0,3,1,2,0,-40,14,3
-5,-8,-1,-1,-4,-3,19,23,3
4,-28,-3,-4,1,1,24,13,3
2,1,-6,-1,0,0,-30,29,3
4,20,6,3,2,4,22,11,3
-7,-17,-4,0,0,-4,-18,9,3
-1,19,3,2,2,1,12,19,3
1,9,8,1,-2,1,41,1,3
0,-13,-9,-2,-5,-2,-36,27,3
0,1,0,-2,1,-1,-35,4,3
5,1,-3,-2,-1,-3,22,-8,3
-6,-1,0,0,2,2,-41,-7,3
5,10,4,0,5,4,7,-19,3
-7,6,-10,-2,-3,-3,45,4,3
2,2,1,-1,0,3,43,8,3
3,-7,-2,1,1,-4,-88,-12,3
-6,-5,-1,-4,-3,5,90,-7,3
-5,2,-1,-2,-2,-12,-55,-14,3
0,-1,1,-1,2,5,-12,6,3
-3,-9,-4,-1,0,2,26,-8,3
8,3,-3,0,0,-2,-62,-12,3
4,10,6,-1,2,5,33,11,3
-3,-6,-3,-1,-2,-5,-9,-1,3
3,9,5,0,0,0,-25,2,3
-13,-19,-1,-2,-2,-5,-10,-5,3
4,10,6,0,-1,5,34,5,3
2,-8,-6,1,2,1,-14,3,3
0,9,-1,0,0,3,24,11,3
-7,3,1,0,0,-3,-25,-21,3
-21,-33,-2,-2,-3,3,-32,-25,3
3,45,7,1,4,2,16,44,3
24,-19,-5,-3,-6,-11,-50,-16,3
4,10,1,2,0,5,-25,52,3
1,-12,-7,-4,-3,4,54,15,3
5,16,5,1,-2,-4,-28,6,3
-4,1,-4,-4,-2,-2,20,-10,3
1,3,3,-1,2,0,-12,25,3
12,4,1,3,1,-3,-7,9,3
-1,-11,-3,-3,-2,-5,-7,-13,3
-10,12,3,1,0,1,35,16,3
-7,-2,-3,-5,-1,-5,-16,-69,3
8,5,0,3,3,1,-11,5,3
-5,7,-4,-3,-4,-5,-19,-6,3
-15,-16,-4,1,-1,4,-8,17,3
10,-6,-4,0,-1,-3,-4,9,3
4,15,4,0,-4,-2,27,-15,3
2,-23,-5,1,3,2,-58,-18,3
-5,5,13,5,3,3,-3,4,3
-7,-20,-19,-9,-5,-5,45,11,3
15,6,0,-2,0,0,-17,-5,3
-1,-8,-6,-1,-3,5,33,0,3
1,1,3,1,0,-6,-75,-5,3
-6,3,5,1,0,-1,15,6,3
-5,-6,-2,1,0,0,7,-1,3
7,-5,-1,-2,-3,-4,9,1,3
-7,-5,-6,-2,0,1,-13,-30,3
3,13,5,1,1,3,34,-7,3
-13,-15,-10,-1,1,0,-26,-25,3
-19,-14,4,1,-1,-7,-30,-64,3
6,25,-6,-6,-2,3,82,16,3
1,4,0,-2,-4,-6,-55,8,3
-6,6,1,1,1,2,-8,-3,3
6,15,-1,0,3,3,21,18,3
4,-24,-4,2,-1,-3,23,-2,3
-11,-31,4,2,2,2,-11,-1,3
1,10,-8,-3,0,2,6,10,3
7,5,0,-1,0,-6,-16,-1,3
-1,7,1,-3,-1,1,7,5,3
-11,-33,-4,1,3,8,52,19,3
-3,-12,2,1,2,-2,32,-42,3
12,19,8,-2,-5,-8,-26,-34,3
-8,-27,-13,-1,1,2,-25,-13,3
-3,30,-2,-3,-6,-3,22,-1,3
21,-9,-7,-2,2,7,6,30,3
3,5,4,1,1,-3,-2,28,3
-3,12,1,0,0,-4,13,-5,3
0,-2,-2,1,2,0,-33,-12,3
2,38,-2,-6,-6,-13,-71,21,3
-7,4,1,1,2,4,71,10,3
1,-14,-1,1,1,-3,-20,14,3
10,18,-4,-2,-1,2,5,2,3
-2,-33,-3,0,0,-3,-26,-11,3
-14,-5,-3,1,-1,2,-21,2,3
4,9,0,-3,-2,-4,31,-25,3
11,4,10,4,1,0,-30,-20,3
-18,-2,5,3,2,2,54,11,3
0,-36,-14,-6,-3,-6,-43,-11,3
2,-7,1,2,3,4,23,1,3
1,52,1,-6,-6,-11,-31,-46,3
-15,-10,-2,-1,-3,-4,13,-14,3
-2,-5,-2,2,4,4,-11,32,3
-18,-51,-10,-3,0,6,-5,-2,3
7,48,9,4,7,4,26,26,3
5,8,5,1,-5,-2,49,18,3
-12,-46,-4,-4,-6,-15,24,2,3
1,-64,-8,-4,-4,-8,-90,15,3
2,2,-15,0,6,7,17,10,3
12,8,-8,1,-2,9,-9,24,3
-13,-33,-4,0,3,5,61,15,3
-5,23,6,0,0,5,-22,-20,3
-18,-43,-13,-4,-3,-16,-40,7,3
17,6,2,-2,-1,5,64,-24,3
17,47,8,1,2,3,-95,14,3
11,3,0,-1,0,1,70,26,3
6,-37,4,0,-2,3,-32,13,3
-16,-5,-5,-4,-3,-5,-18,-29,3
11,19,-2,-5,-1,-3,21,-4,3
9,11,1,-2,1,-3,27,-66,3
6,20,3,-1,0,-1,-59,19,3
-2,-11,3,2,0,-8,-22,22,3
-2,-9,-5,2,0,7,35,0,3
4,33,4,5,1,6,12,22,3
-12,-28,-1,-3,-7,-12,-43,-30,3
1,15,7,0,0,-6,-9,-8,3
-42,-7,-20,-5,-4,6,50,8,3
-11,20,0,-4,-3,1,4,-32,3
5,-49,-5,-1,-2,-3,32,-7,3
13,5,3,2,6,11,13,12,3
-14,-2,0,-4,-5,-11,-16,-16,3
-13,-44,-3,0,-2,-5,-4,7,3
4,32,1,2,1,6,45,23,3
11,-10,1,1,-1,-4,-44,-7,3
8,-6,6,1,1,3,33,8,3
14,19,-4,2,-1,3,-2,15,3
-4,-7,2,-3,-3,-2,16,-9,3
-24,-3,-3,-1,-2,1,14,-17,3
4,31,4,0,1,-1,-63,-20,3
-2,-4,2,0,-2,-10,-54,20,3
-2,15,2,2,3,10,65,2,3
3,2,0,-1,0,-3,-40,26,3
0,4,-2,-3,-3,-2,-27,-29,3
-8,9,5,1,-4,-9,-12,-1,3
-13,-13,-13,-1,1,-2,54,-9,3
-4,5,-2,-2,1,2,-17,5,3
11,-7,9,3,2,6,60,37,3
0,35,-3,1,1,3,-8,-27,3
-10,21,3,-2,-5,-10,-21,-18,3
0,-6,-3,-2,-1,-2,73,16,3
5,0,-3,0,0,-3,-52,1,3
0,21,3,-1,1,-1,-3,5,3
5,-13,4,2,-1,10,50,3,3
-8,3,-8,-6,-1,-4,-40,-37,3
-5,-4,4,3,2,2,19,-5,3
4,-15,-2,-3,2,0,16,21,3
7,-9,3,2,1,-2,-74,15,3
-13,1,1,-1,-4,-2,-69,-27,3
-13,-29,4,1,-3,2,27,-20,3
0,-22,-12,-4,0,6,57,34,3
13,5,0,-1,-1,-7,5,1,3
-2,-7,0,0,-1,-3,21,13,3
14,26,0,-2,0,3,42,14,3
-2,3,1,1,-1,5,17,2,3
-10,-5,2,-3,-1,3,7,-17,3
1,8,-1,-1,-4,-13,-14,12,3
5,-5,0,0,0,0,19,-34,3
1,1,-1,-3,0,-2,18,-4,3
4,-1,-2,-2,-2,1,96,0,3
11,2,3,4,4,9,42,20,3
-7,-3,-8,-6,-3,-11,-17,-32,3
3,0,2,2,1,8,15,19,3
0,9,5,1,1,-1,-45,15,3
-3,-3,-3,-1,-2,5,-10,-11,3
-2,4,3,0,-2,1,7,7,3
-3,-2,4,2,2,2,36,7,3
-15,-8,-4,-3,-3,-15,-97,-23,3
12,3,3,-1,2,6,36,4,3
-9,-11,-8,-1,-1,-3,-16,17,3
-11,-16,3,-5,-2,-4,-15,-20,3
-2,3,-2,0,-2,5,7,18,3
-3,-4,-1,-1,-1,-4,-41,-19,3
8,19,1,0,-1,-1,13,11,3
7,12,4,1,-1,-6,26,11,3
-4,48,3,-1,-1,0,24,-4,3
10,-11,-1,3,1,1,-34,31,3
-6,-27,2,-3,-2,8,46,1,3
-1,8,-5,-1,-3,-3,25,2,3
-6,2,-1,1,3,-1,31,-42,3
-15,-4,-4,-3,0,-5,-9,25,3
9,4,2,4,3,2,14,38,3
0,0,-3,-2,-2,-2,46,-41,3
1,-10,0,-1,-4,2,45,21,3
-6,-4,-1,-2,-3,-3,-29,0,3
2,-9,-3,1,1,1,4,9,3
-7,3,-2,-1,1,0,-39,-1,3
-11,-13,-3,-2,-1,-3,-3,10,3
2,-2,0,-1,1,0,18,-16,3
3,10,1,0,-1,-1,-20,1,3
-3,0,-2,-1,-1,-9,-76,-5,3
1,-13,-4,-2,0,-2,-17,-17,3
-12,4,-5,-1,-2,3,6,-16,3
-11,4,-4,-1,2,-7,4,-3,3
1,12,5,0,-2,3,-10,-51,3
1,-19,-5,-2,-5,-3,-9,12,3
-11,1,5,1,5,9,31,25,3
10,30,-2,0,-1,-6,-57,-34,3
-24,0,6,2,2,2,53,29,3
2,8,-2,-3,1,-6,-97,0,3
12,6,-1,-2,-2,3,91,12,3
0,-2,2,1,0,-4,-24,-14,3
10,-9,-2,-1,0,-1,24,16,3
6,-4,-1,1,2,5,24,4,3
-3,0,-2,-1,1,-7,-35,9,3
9,-16,-1,-2,-1,3,20,14,3
-10,1,-7,-5,-4,-7,-11,-41,3
0,-30,-1,1,1,7,24,10,3
4,-10,-2,-3,-4,-6,-38,-14,3
-11,-3,-3,-3,-3,-2,9,-19,3
6,0,-2,0,0,0,-8,16,3
5,24,3,1,2,3,39,35,3
-3,-27,-2,-2,-3,-7,-52,-68,3
8,-5,0,1,2,1,-63,25,3
13,9,0,2,-1,4,4,22,3
-8,2,-2,-2,-1,2,-14,-13,3
6,7,3,0,4,5,26,29,3
-10,3,-2,-5,-6,-3,29,-41,3
-5,-18,-3,-1,3,-2,-21,46,3
3,-6,-8,0,-2,0,-13,-41,3
12,9,4,3,2,0,26,32,3
-20,5,0,1,-2,-4,-5,0,3
0,-11,1,1,-1,3,-9,-6,3
-5,17,8,-1,-1,0,-23,25,3
-5,-32,-7,-4,-5,-3,52,-18,3
-5,1,3,2,6,10,97,1,3
7,-6,-3,-2,-5,-18,-76,24,3
5,-3,1,-3,-4,-2,30,-35,3
5,-7,0,-1,-1,-2,-40,5,3
20,17,3,2,4,10,38,33,3
-9,15,-6,-7,-5,-3,-7,-21,3
-12,-15,-8,-1,-2,1,15,-4,3
-5,17,-1,-2,1,-2,-12,10,3
5,3,2,3,0,0,-40,-5,3
6,3,4,3,-3,3,88,16,3
-3,-42,-11,-4,-5,-5,-49,1,3
-3,10,1,-1,-1,2,-5,-12,3
0,-7,0,-2,1,-4,-27,2,3
1,-1,-1,1,4,5,19,3,3
-4,26,2,-3,-1,-7,-57,-30,3
-12,-42,-3,0,0,-2,18,2,3
-4,-11,-5,-2,-2,-4,27,14,3
3,10,7,1,-3,1,-79,11,3
-1,-17,-11,-1,-2,0,109,44,3
2,18,1,-1,3,3,-17,-7,3
0,5,1,-1,-5,-8,24,-18,3
2,-22,-2,0,2,3,-33,3,3
-4,6,9,2,2,2,3,1,3
-4,9,-8,0,-3,6,5,-6,3
-3,23,-1,-3,-4,-2,53,13,3
-11,-26,-3,-3,-2,-5,0,-30,3
3,-3,4,3,0,2,-45,67,3
-3,23,3,-4,-6,-10,-61,-25,3
5,3,2,1,3,7,7,3,3
6,2,-3,1,-3,-1,2,34,3
12,18,2,0,-1,-4,-9,8,3
-23,-19,1,2,1,-4,60,15,3
7,2,0,1,-1,1,10,21,3
0,7,-1,1,0,5,80,5,3
-10,0,4,4,-1,-2,2,-3,3
6,-10,1,3,2,5,30,26,3
-1,-12,-4,-3,-5,-8,-52,-2,3
-4,0,-2,2,2,-1,-20,3,3
10,22,7,0,-2,4,15,0,3
-5,30,0,-2,-3,-7,-33,25,3
6,-15,-2,3,4,0,-86,3,3
-11,-7,-8,-6,-6,-10,46,-2,3
2,-21,-9,0,2,2,-25,-51,3
7,15,3,1,-1,1,-3,-1,3
19,-6,-2,-1,0,4,-24,17,3
19,24,4,1,-1,-2,-2,8,3
-4,-6,-1,-3,0,-3,56,-16,3
1,-7,-6,-2,-1,2,-25,24,3
-2,1,4,-2,-2,0,46,-12,3
1,-6,-3,1,-1,-8,-122,-24,3
3,1,2,1,1,4,57,-45,3
-27,-6,-1,-2,-4,-13,63,-12,3
13,-2,0,0,4,8,3,23,3
-5,-1,-3,-3,-1,-4,-27,-3,3
-3,-12,-6,-2,0,7,-10,25,3
20,15,3,1,0,-2,-24,18,3
-18,-35,-8,-3,-4,-5,32,-39,3
2,6,4,0,1,-1,15,-22,3
-11,-39,-1,1,2,-2,-24,18,3
6,-24,-8,-2,2,2,26,-23,3
4,21,-1,-1,0,-9,-26,12,3
-5,1,1,2,4,11,23,5,3
6,3,1,-1,-3,-6,20,-8,3
4,-2,2,3,2,3,-11,-28,3
16,-5,1,-1,-1,3,33,11,3
5,6,2,2,3,1,-3,15,3
-1,14,-2,-2,0,-6,-52,18,3
-11,-6,-2,-2,-2,-2,-24,-21,3
-13,-8,-11,-2,-2,-1,34,-49,3
-16,2,-3,-4,-2,-7,2,-10,3
-7,4,1,0,3,3,-4,-7,3
-1,-4,-2,-4,-3,2,49,-13,3
-20,1,0,1,-1,-6,-16,-21,3
9,-2,3,-1,-3,-8,-31,-39,3
1,10,-2,0,-2,4,62,7,3
23,24,5,1,2,-2,-48,19,3
-14,-34,-4,-2,0,4,9,-27,3
5,21,-4,-2,1,-2,10,-4,3
0,15,3,-1,0,1,10,9,3
-3,-1,0,-4,-1,1,-4,8,3
-8,-3,-2,2,4,2,-7,-30,3
4,6,-2,-1,-2,0,-12,-23,3
5,13,0,-2,-4,-2,-42,40,3
4,5,-4,2,0,0,22,-7,3
-2,11,1,-4,-1,-7,-40,16,3
-13,-3,3,0,1,5,31,0,3
0,-9,-4,-2,-3,-4,15,-36,3
0,-2,4,3,5,8,22,-9,3
-1,5,-1,-1,-4,-10,5,37,3
-21,-8,0,1,3,10,24,29,3
-17,0,-4,-2,3,1,-29,7,3
-12,5,-1,0,0,5,17,19,3
0,7,10,0,-2,-6,10,53,3
5,-24,-8,-1,0,7,24,43,3
-4,5,-2,-1,2,7,73,1,3
-5,3,-2,-3,-3,-17,-90,-27,3
-2,15,3,1,0,5,62,1,3
-2,-9,-2,-3,-4,-11,-80,-19,3
15,0,5,2,3,3,30,35,3
11,-7,-1,1,-3,-4,-24,-14,3
3,-12,-10,-4,-6,-5,-15,-9,3
10,-5,-4,0,0,-1,18,-7,3
-2,-23,1,-1,-3,-4,-46,-28,3
-9,1,0,-3,-2,2,9,-5,3
19,18,-3,-3,0,-5,-39,31,3
2,-8,-1,-3,-1,-2,24,-39,3
1,2,-1,2,-1,3,14,40,3
-4,-6,2,-1,-2,-6,-32,26,3
-4,0,-1,2,2,3,3,-1,3
-16,-16,-2,-1,0,-1,4,20,3
-5,-6,-13,-2,-4,-5,-20,-27,3
18,-1,-1,1,2,7,100,-10,3
4,-6,0,-1,-6,-5,-35,-12,3
6,15,0,-1,1,5,22,2,3
11,-27,-4,-5,-6,-10,-9,-22,3
4,-4,-4,0,1,8,18,30,3
6,4,1,-2,-1,-11,-22,-20,3
4,19,0,4,-1,2,21,17,3
-5,-5,1,0,-2,-5,-21,-1,3
26,6,3,0,4,11,50,9,3
-19,19,9,-1,-3,-11,-3,-12,3
2,-12,-8,-2,-5,-8,-30,2,3
-1,-14,1,1,2,12,97,2,3
-11,-2,-1,-2,-4,-8,-2,3,3
-3,2,4,1,3,14,35,3,3
17,11,4,2,-1,1,23,-2,3
-8,16,2,0,0,-8,-47,7,3
-2,-9,-4,-3,-3,-3,-20,-34,3
3,-7,-3,2,3,5,4,51,3
1,25,-3,-1,0,-2,-12,-7,3
-11,-11,-1,-1,0,-4,-5,-9,3
-5,10,1,1,-1,-4,-57,9,3
3,-7,-3,3,5,8,31,24,3
-8,0,5,-5,-3,-10,5,-82,3
-2,7,-5,-3,-3,-15,-42,-17,3
-9,0,-4,-2,-3,0,-14,-2,3
-12,20,5,-1,0,3,-33,-31,3
6,-10,0,-1,1,9,76,24,3
12,9,7,2,2,-3,-82,5,3
-27,5,-2,-2,-1,-4,0,-24,3
-7,-15,-6,-2,1,1,-35,-20,3
-17,-6,0,0,-1,3,28,30,3
17,11,5,1,-1,4,63,18,3
2,-24,-7,-4,-1,-3,-67,-1,3
0,-6,-2,3,-1,0,33,-3,3
-16,-5,-4,-6,-4,-3,-6,-10,3
7,-24,-15,-1,1,10,23,4,3
1,-1,2,-1,-1,-2,13,3,3
-2,-10,-9,-3,3,0,7,-9,3
8,-13,0,0,1,-3,-27,1,3
-4,15,3,-2,0,0,-11,-13,3
-1,3,1,0,1,4,36,-1,3
-2,-9,-4,-3,-5,-6,-28,-1,3
12,29,3,1,1,0,-16,-3,3
-13,-5,5,-1,-1,-1,-3,-36,3
2,16,-1,-1,-2,-1,32,20,3
11,-3,3,1,-4,2,52,-39,3
9,0,-1,2,3,-5,-68,58,3
-7,3,1,-1,-2,-6,67,-13,3
1,-6,1,-1,-4,-5,-10,5,3
32,-28,-2,2,0,17,49,31,3
-30,12,-3,-5,-1,-4,-5,18,3
10,26,6,-2,-3,-6,-16,-13,3
-4,-14,-3,2,2,3,26,3,3
-9,6,-1,0,0,-12,-69,-1,3
0,-14,1,2,-1,4,36,-16,3
4,2,1,1,0,4,-20,19,3
-6,3,-2,-2,-2,1,20,-17,3
-7,-11,-4,-3,0,-4,-29,4,3
-19,-15,-1,0,1,0,7,0,3
5,8,-2,-4,-2,-5,-5,-4,3
10,-8,-1,0,-1,-2,-15,42,3
-4,7,-3,-5,-1,-4,11,17,3
2,-12,-1,3,3,2,-6,-6,3
-22,-16,-9,-5,-3,2,4,8,3
15,4,1,2,3,1,27,-47,3
21,8,6,0,-4,-8,-77,-60,3
-2,3,0,0,0,3,64,19,3
-2,18,1,2,4,4,-53,5,3
-20,-27,-10,-5,0,-5,47,15,3
-37,19,2,-1,-1,-1,-24,16,3
11,-23,1,-1,-2,4,19,-7,3
5,-6,1,2,-2,3,21,9,3
7,5,1,-2,-3,-3,-36,15,3
3,-5,1,-1,-2,-1,27,20,3
3,3,-9,-2,-2,-5,-56,-20,3
-2,-8,-2,1,0,0,16,15,3
-2,6,1,0,1,-2,-15,-18,3
-10,-6,-1,-3,-3,-2,24,-51,3
4,1,1,0,-2,-4,-32,1,3
-1,2,-2,0,0,3,24,30,3
13,7,0,1,2,3,14,-4,3
16,0,0,1,-3,-15,-71,5,3
12,8,3,1,1,8,21,25,3
-12,-6,-3,-5,-6,-12,15,15,3
-27,-3,-1,-3,-3,-3,-30,-22,3
3,3,-1,-1,0,8,38,46,3
2,10,0,1,3,5,19,-13,3
2,-3,-13,-5,0,-4,-37,-22,3
0,19,-2,-2,-1,-1,16,3,3
-12,-8,4,4,2,1,41,-13,3
-2,38,-18,-7,-6,-2,3,28,3
34,22,5,3,4,8,-11,-15,3
14,7,6,3,1,-3,-53,10,3
-19,7,-1,-2,-1,0,18,3,3
9,-23,5,1,1,-1,-72,-33,3
0,-4,3,3,-3,-3,30,1,3
0,-6,-4,-1,-1,2,-9,0,3
5,-7,2,2,1,3,4,5,3
-1,-11,2,-2,-2,-3,26,6,3
4,-12,-7,-3,-2,-1,-17,6,3
-5,-9,5,3,3,2,68,0,3
-1,4,-1,-1,-1,-3,-82,25,3
-9,-7,-1,-2,-2,-2,31,-12,3
-3,1,1,-1,-3,-1,-27,-9,3
-8,1,2,-1,1,-1,48,11,3
9,4,-3,0,1,1,-14,4,3
1,13,-2,-2,-2,-8,-6,-13,3
1,-13,2,0,-1,0,4,24,3
10,-16,0,0,-1,-9,-34,4,3
-1,1,-2,-3,2,3,27,11,3
16,3,10,5,1,3,12,42,3
-1,32,10,3,2,3,41,17,3
-27,-81,-18,-3,-4,-2,-46,18,3
5,-7,-9,-3,0,-8,-43,-23,3
-2,-5,0,-2,-3,6,102,22,3
-7,-3,2,1,5,4,-32,0,3
5,21,3,1,-1,-1,31,-14,3
0,-5,1,0,0,0,22,8,3
-18,-17,-10,0,2,3,-62,-6,3
3,2,-5,-3,-2,-6,-20,-42,3
-2,8,0,-3,-1,-2,-40,-3,3
-13,-10,-9,-1,-2,2,61,26,3
1,28,8,0,1,1,7,-6,3
16,14,5,2,-1,-3,-37,-25,3
0,-52,-8,-3,-1,-5,11,11,3
12,-8,-1,-1,1,9,-33,-24,3
-2,-16,-7,-4,1,-6,17,-47,3
-6,-4,-2,-2,-3,-4,-27,-25,3
6,17,5,-1,-1,0,8,-7,3
10,14,2,0,0,0,30,12,3
11,-5,2,1,1,-3,-85,70,3
25,-10,-3,-1,2,8,85,-7,3
-3,24,-1,-1,-3,-8,7,13,3
3,3,3,2,4,8,79,38,3
-2,9,1,-2,-4,-11,-62,-28,3
-22,-45,-10,0,0,6,67,32,3
-2,23,-1,-2,-2,-8,-84,-29,3
-19,-41,-1,3,-3,4,80,25,3
-9,-10,3,1,-1,-7,30,-17,3
-11,8,-1,-2,-2,-2,17,3,3
-17,-1,0,0,4,5,5,7,3
23,34,-6,-4,-3,-3,-14,-38,3
-17,-32,-2,2,-1,0,-27,-31,3
-2,-8,-2,-2,-1,-4,-20,4,3
9,22,6,2,2,1,21,18,3
18,18,3,4,8,-1,-27,14,3
-15,2,-1,0,1,8,39,60,3
4,9,2,-2,-2,3,17,27,3
-14,-8,-3,-1,-1,1,-84,-6,3
-5,2,2,-5,-6,-10,6,-9,3
24,1,-2,0,4,8,40,45,3
3,-10,-3,0,3,-11,-60,3,3
31,14,0,-3,-3,3,2,-30,3
-12,-7,-2,-1,-1,1,-29,9,3
-21,-1,-4,-3,-6,-7,-13,-24,3
-24,1,-2,-2,1,-1,-23,1,3
-5,1,-1,0,3,4,4,-33,3
-6,7,5,1,2,-2,12,-10,3
10,1,2,0,-2,-4,-36,-20,3
-35,-11,-4,-5,-1,-1,-3,-15,3
5,2,-4,-1,1,-1,57,77,3
7,-6,2,-1,-1,3,26,9,3
-11,-3,-1,-1,0,5,-62,-1,3
6,19,4,1,0,0,31,-5,3
-19,-9,-1,-3,-3,-6,-13,46,3
-7,3,-3,1,-1,0,-37,-6,3
54,-10,1,-1,-4,-9,8,5,3
36,22,13,0,-1,-5,0,-23,3
-20,-14,-9,-1,1,14,64,18,3
6,1,2,2,2,-1,-8,-21,3
-49,4,-5,-4,-1,-7,24,-23,3
-13,-5,-1,1,-1,2,-14,18,3
18,3,1,0,2,3,16,-52,3
-14,-4,-4,-6,-5,-10,2,-31,3
3,1,3,-1,3,4,-26,15,3
9,-9,-5,0,1,2,0,9,3
-18,8,-1,-1,-3,0,-8,-3,3
-4,-30,-13,-7,-5,-5,51,3,3
-5,-10,-1,1,-3,-6,10,-21,3
3,-3,-1,0,1,4,8,6,3
15,21,2,1,0,0,3,-16,3
-10,4,4,2,-1,0,-49,8,3
3,3,-2,-1,-1,5,63,4,3
3,-1,-3,1,-1,-7,-66,-26,3
11,-6,1,2,1,8,74,22,3
7,4,-2,-4,-3,-16,-102,-22,3
-4,4,1,-2,1,4,52,-6,3
-13,-7,-21,-5,4,10,29,53,3
17,25,5,3,-2,1,42,-7,3
-17,-6,-2,-1,-3,-3,29,24,3
16,6,-2,2,2,2,-63,4,3
-10,8,7,-4,-5,-7,2,-33,3
9,-16,-1,-1,2,-4,-16,13,3
-12,5,-8,-4,-1,1,-4,-29,3
-1,-12,1,-3,0,-1,9,-3,3
-1,12,9,4,-1,-3,4,-1,3
2,2,0,-3,-2,-1,9,-46,3
12,17,18,9,4,3,-60,-12,3
-12,-16,-8,-3,-2,-8,14,-2,3
-15,-34,0,1,-2,-4,-46,-5,3
-9,0,-2,0,5,3,68,17,3
-15,-19,7,2,2,15,81,25,3
2,6,-1,0,-2,-10,-85,-15,3
1,-8,-3,1,-1,8,50,3,3
-22,-16,-6,-6,-5,-12,-53,-14,3
14,23,2,-1,-1,1,5,14,3
-14,-1,-2,-1,-1,1,32,-7,3
5,9,-1,-2,-3,-9,-11,-11,3
1,-5,2,-2,-1,0,-48,4,3
-1,-1,-3,1,1,0,-4,-1,3
2,6,-1,-1,-2,-1,10,6,3
-8,-2,-4,-2,1,0,-18,24,3
7,-7,-3,0,-4,-2,-14,-42,3
3,-9,-6,-4,-2,-4,-20,-6,3
16,10,2,2,1,7,5,1,3
2,-7,-1,-1,-1,4,28,-15,3
-5,7,2,1,-1,-5,-24,28,3
1,-4,-5,-3,0,0,29,2,3
25,5,3,1,2,-4,-17,-5,3
0,3,1,-1,-1,0,28,-14,3
7,2,0,4,3,13,41,-4,3
1,-2,-3,-4,-6,-15,-19,6,3
-18,-4,-3,-3,-2,4,78,-41,3
8,4,1,1,0,3,-8,31,3
17,2,-4,-2,0,-6,-28,-10,3
-3,-33,1,2,2,5,30,24,3
-2,38,12,5,5,14,26,80,3
0,-33,-12,-2,-5,-14,-94,-5,3
8,9,5,2,2,4,32,20,3
-25,-21,-3,-3,-2,-1,-5,-31,3
-1,0,-10,-3,-2,-3,-6,-1,3
7,-2,2,2,3,6,26,9,3
0,-4,0,0,-1,-8,-85,6,3
4,4,-4,1,-2,-3,16,-18,3
1,11,2,-2,-2,5,30,8,3
-7,-20,-1,-1,1,-4,-21,-7,3
9,-10,-5,-5,-6,-5,37,-34,3
-12,20,1,-2,-2,-9,-83,16,3
3,-3,-4,-2,-2,-5,12,-18,3
7,0,2,0,0,5,62,69,3
-17,5,4,2,2,-2,-47,6,3
0,0,-1,-1,0,-8,-4,-32,3
10,-6,2,5,2,9,4,19,3
-6,26,4,-4,-5,-12,-78,-8,3
3,-10,-13,-3,-1,3,71,0,3
19,-2,-4,4,1,14,-3,17,3
9,21,-2,-5,-3,-9,-47,-12,3
10,23,3,1,-1,0,29,-19,3
-6,0,3,-1,1,1,-15,11,3
9,3,-1,0,1,-3,15,9,3
-1,-6,1,3,0,2,13,-4,3
-7,-17,-5,-4,-5,-4,35,-13,3
6,2,0,-3,-1,-2,-10,33,3
-25,-8,-5,-3,0,9,12,-37,3
-10,-17,-8,-5,-3,-4,65,-3,3
-2,6,1,2,4,0,-35,-17,3
1,0,2,0,-1,-3,-53,-9,3
-1,7,2,3,-1,2,0,8,3
-12,-2,0,0,-3,-5,59,7,3
-3,-1,-5,-2,-3,-3,-20,-12,3
-3,14,4,3,1,4,31,11,3
4,0,-1,-2,-1,1,22,12,3
2,-3,2,2,2,1,-19,9,3
-7,-5,-2,-1,0,-4,-4,-23,3
1,-2,1,-1,0,-1,65,3,3
7,5,1,-1,0,2,44,22,3
0,-3,-11,-4,-4,-16,-128,-18,3
15,7,1,3,2,4,3,-5,3
2,0,0,-1,-1,2,19,-2,3
11,9,1,-1,-4,-7,32,-20,3
11,-17,-2,-1,1,1,2,-41,3
12,25,2,1,-1,5,2,31,3
-4,-68,-5,-1,-2,-2,28,12,3
12,41,0,-6,-2,-7,-32,-2,3
-6,4,6,1,2,3,4,16,3
-13,2,0,-2,-1,-9,24,-46,3
24,27,5,1,1,5,21,10,3
-21,-13,-2,0,-1,-2,-10,-5,3
-4,-12,0,-2,-1,3,-22,25,3
-11,-1,-5,-4,0,1,25,-6,3
-10,18,1,2,2,1,-8,16,3
7,-12,1,1,0,-2,-9,9,3
-10,7,0,2,0,0,2,-11,3
6,-16,3,2,0,4,17,10,3
-18,-5,-26,-9,-6,-6,-34,-25,3
-9,-16,-3,1,2,3,-11,1,3
4,-9,-3,-2,-2,-3,46,-35,3
-12,-15,-5,-1,-2,4,39,-32,3
-7,5,4,0,-2,-5,-64,-10,3
5,4,0,-1,-1,-4,15,0,3
-5,-7,-3,-3,-5,4,95,-6,3
-14,4,3,0,2,-3,-11,1,3
0,4,1,-4,-2,-3,-30,-41,3
-7,-22,-1,0,1,6,11,-6,3
10,10,8,3,2,-2,-17,1,3
7,22,8,0,0,-12,-96,20,3
-16,-45,-7,-1,1,6,84,26,3
-4,-6,-5,-2,-3,-5,-49,-4,3
-5,-8,-3,-4,-1,-7,-31,-12,3
8,-2,-4,1,0,5,20,2,3
3,15,7,4,1,2,7,8,3
2,-1,2,-1,-3,-2,-18,9,3
-3,4,0,1,1,0,-31,-22,3
10,4,-1,-1,-1,3,13,25,3
-10,1,1,0,1,-10,-66,23,3
-6,-2,-2,-2,-2,5,60,-10,3
4,13,-3,-4,-2,2,-47,21,3
-18,-45,-13,0,1,-1,25,-36,3
-5,13,3,0,2,2,2,-5,3
-3,10,2,0,-1,-6,-19,-6,3
-3,-22,-5,-3,-1,1,4,-4,3
12,26,6,1,-1,-6,-51,18,3
0,7,-6,-3,-7,-10,59,-35,3
8,8,-9,0,2,4,43,2,3
8,0,2,0,0,0,-12,17,3
-1,-7,-5,-4,-2,3,12,45,3
14,13,5,0,-2,-6,-54,3,3
8,22,3,-2,-2,-4,-21,-6,3
-7,-31,1,2,-2,-3,7,10,3
-1,-10,6,0,-1,4,26,-26,3
-2,34,11,4,1,-1,5,23,3
-23,-56,-10,-2,2,4,9,10,3
9,45,-3,-4,-3,-8,-71,-10,3
7,4,2,1,0,3,35,13,3
0,0,0,-1,0,1,55,2,3
-5,10,4,-1,-1,-3,-67,0,3
-18,-7,-5,-1,-3,-12,-55,-23,3
-7,0,-1,1,2,2,56,8,3
7,-5,-7,-3,-1,-4,-34,-10,3
4,3,0,-1,0,2,24,-9,3
-3,-6,-2,-2,0,2,11,12,3
1,11,0,-1,0,0,-10,-27,3
2,-12,3,3,1,4,14,23,3
2,0,0,1,2,1,-26,-20,3
-10,-3,1,-1,1,8,48,11,3
-26,-7,-5,-3,-1,-5,3,-24,3
-31,-11,-4,-1,3,2,-11,21,3
2,-1,-7,-1,0,0,21,10,3
-17,-41,-1,-3,-1,6,14,5,3
7,17,2,-2,0,1,103,-6,3
4,-7,-2,-1,2,-7,-45,-20,3
12,30,3,0,0,-4,38,2,3
2,4,2,3,2,5,13,-4,3
-3,-1,0,-2,-3,3,32,-23,3
6,1,2,1,-3,-5,-59,43,3
-4,3,-1,0,0,4,37,15,3
16,31,3,1,1,0,6,12,3
-8,-8,-4,-2,-4,-8,-44,8,3
7,8,-1,-1,0,3,25,-5,3
-10,0,-1,-2,-2,-4,-28,2,3
-12,3,-5,-2,-3,2,20,-1,3
3,3,2,0,5,-3,-36,0,3
3,-17,-2,2,1,12,59,5,3
4,25,3,-4,-4,-15,-86,-4,3
-1,3,-3,1,1,-1,45,-15,3
8,-6,4,0,0,2,9,13,3
16,2,-2,-2,-5,-3,24,28,3
10,8,3,3,3,-3,-42,-33,3
14,9,6,3,-2,-1,-28,0,3
7,-3,0,2,-1,-4,-34,25,3
13,-9,1,-1,-1,1,-8,-55,3
3,10,4,1,-1,2,57,18,3
-3,-27,-6,-1,0,1,-21,16,3
-15,3,-2,0,-4,-5,70,26,3
-6,1,-1,-2,1,-3,23,-25,3
0,-11,-1,0,0,2,19,9,3
-1,-6,2,2,1,3,12,-17,3
3,2,-5,-1,-1,-4,-44,5,3
-5,4,-1,-1,-3,-4,-7,2,3
-8,-15,-2,-2,-2,1,55,24,3
-12,-2,-1,-3,0,-4,24,-43,3
4,5,0,0,0,9,49,15,3
3,-20,-9,-2,0,-4,-74,-6,3
3,12,-1,1,-2,-2,-22,-7,3
-6,-21,1,0,0,-6,13,18,3
-6,6,-3,0,-1,-2,27,-39,3
-20,7,3,0,1,3,11,-8,3
-23,-11,-6,-3,-1,0,-40,-2,3
15,7,-2,-3,-5,-2,6,-10,3
6,5,-2,1,-1,2,-49,-10,3
-6,-7,-3,-3,0,-2,30,-35,3
6,-17,2,1,0,4,7,-16,3
2,9,-4,-1,-2,-3,42,7,3
-4,-11,0,0,2,3,0,17,3
4,11,-1,0,-4,-1,13,28,3
2,1,1,-2,-1,1,30,-6,3
0,7,3,2,1,4,-13,4,3
-1,1,-1,-1,-1,-8,-44,-29,3
12,12,3,0,-2,4,84,33,3
-2,-13,-2,-2,0,3,18,-13,3
-4,10,-1,-3,-3,-8,-32,24,3
13,-19,-1,-1,5,8,7,14,3
-7,6,-4,-3,-5,-2,-36,12,3
-11,-6,1,0,1,-3,-19,17,3
-4,-7,-5,-3,-2,2,38,-21,3
0,24,1,1,1,6,16,26,3
-1,-14,0,0,-3,-11,-94,-45,3
8,13,-1,0,-2,0,83,1,3
-1,17,5,2,0,1,-3,41,3
-7,-15,-1,-1,1,-7,25,-23,3
-4,2,-2,-1,0,-3,-33,-15,3
3,-13,-2,-2,0,3,13,4,3
1,-2,2,1,1,-3,-38,-2,3
-2,5,-6,-4,-5,-4,14,-23,3
1,27,20,2,5,4,29,3,3
5,-21,-12,-3,-3,1,-26,1,3
20,-11,0,1,2,-2,8,2,3
-1,2,-2,-1,-3,-5,-44,-4,3
4,-6,3,2,-4,-4,14,-4,3
-1,-18,4,1,-2,-6,-74,5,3
-3,3,-10,-5,-1,0,23,16,3
4,-5,-1,1,0,7,4,16,3
-5,-5,-6,-2,-4,0,-24,10,3
20,13,5,0,1,-3,14,22,3
-2,-7,2,-1,-2,1,-3,-4,3
-2,1,1,-1,1,-4,-13,11,3
-14,-23,-15,-6,0,1,31,-3,3
3,41,-3,0,1,-2,-49,-5,3
4,4,2,1,2,-1,11,2,3
-1,-3,-1,-1,0,0,1,6,3
9,-10,-2,1,1,3,11,10,3
-4,0,3,1,0,1,26,-10,3
-1,-13,-7,0,0,-2,5,-1,3
-1,-1,-10,0,-3,0,-6,20,3
-15,-13,-5,0,-2,-8,-36,-29,3
-3,-4,0,0,-1,-5,54,-23,3
-3,1,2,1,1,2,14,-9,3
3,8,1,-2,-1,4,11,-15,3
-2,-22,1,0,2,2,25,10,3
6,-6,-4,-2,0,3,-20,10,3
-7,13,-1,-1,-4,-3,-4,-50,3
-6,8,2,-1,-1,-9,-40,15,3
11,7,1,1,3,7,50,26,3
-8,-4,3,0,0,-1,-9,7,3
3,-2,-5,0,-2,-7,-62,9,3
-5,-3,-3,-3,-5,-1,20,-18,3
2,13,-3,-1,2,-1,-45,-12,3
-2,-11,-1,-3,-3,-6,63,8,3
-2,14,6,0,1,5,-3,20,3
-6,4,0,-1,1,-4,-22,-13,3
-5,-12,-10,-2,-4,-6,-12,-57,3
-4,-25,-2,2,-1,5,-4,-25,3
-2,4,7,-4,0,-3,14,7,3
-1,0,-10,-4,-5,-7,-34,-17,3
1,-10,0,0,0,4,27,17,3
0,-1,5,1,4,-3,-28,1,3
-2,-10,-6,-2,-1,3,15,-9,3
6,6,5,1,1,8,38,-17,3
-14,0,-5,-4,-4,-12,-24,31,3
13,11,0,0,0,4,20,15,3
5,8,2,0,1,0,27,28,3
0,-23,-1,0,-2,0,23,12,3
-4,5,-3,0,0,4,37,7,3
-5,18,6,-1,2,1,-23,-1,3
11,-27,-14,0,0,2,-9,-8,3
-10,-38,4,-1,1,-6,-5,5,3
3,-10,-2,-1,0,-1,-16,8,3
-1,2,2,0,-3,-4,-3,15,3
-4,-3,-1,1,2,-1,-5,13,3
-7,-10,-2,-2,-2,-7,-30,-21,3
2,39,3,-5,-2,2,-12,-32,3
-16,-8,-5,-2,-1,-2,23,0,3
1,16,6,2,1,2,31,5,3
-9,-20,-3,2,2,2,82,-12,3
-3,-8,0,-1,-2,-8,-87,-26,3
1,8,-1,0,2,6,51,8,3
-7,-9,-11,-4,-1,-5,24,-26,3
7,39,6,1,0,5,1,29,3
13,-17,2,2,0,4,32,11,3
-8,2,-10,-6,-7,-9,-7,-14,3
2,-1,3,-1,-6,-18,-26,-12,3
4,19,6,0,0,10,50,4,3
-6,-8,-5,-1,8,11,28,6,3
15,8,1,3,3,-7,14,4,3
-10,-5,3,-4,1,6,-93,-16,3
6,12,-2,7,17,21,47,-26,3
4,1,3,5,2,5,-37,11,3
1,-9,0,-2,-15,-14,19,-44,3
3,10,2,-3,-15,-17,0,25,3
-18,-4,-7,-4,-9,-18,-59,26,3
5,-11,-3,-3,0,-5,27,18,3
-2,4,3,0,4,2,-63,9,3
-7,-40,-13,2,3,2,-10,-10,3
14,13,7,-3,-2,-1,-31,-16,3
1,13,0,-2,1,3,72,4,3
-5,5,-1,-3,-7,-12,-54,9,3
6,13,5,-2,11,18,45,-1,3
4,-8,-1,3,7,4,-2,-16,3
-3,7,0,1,-6,-6,-34,9,3
8,-3,-1,0,1,6,9,8,3
-3,4,3,-2,-9,-9,27,-7,3
4,6,-1,-6,-9,-12,-46,3,3
-9,-4,-3,-4,-6,-8,25,-30,3
-6,-7,-2,1,3,6,-9,-2,3
-2,-1,-2,2,3,3,4,3,3
7,19,-1,0,-1,-3,14,42,3
-3,11,8,1,0,-2,-11,-21,3
-1,-3,-6,-2,3,7,42,6,3
1,-21,-1,-1,0,-4,-62,-9,3
9,13,-3,-1,-3,0,-9,15,3
-1,10,2,1,2,1,12,-1,3
-4,-7,-3,-2,-1,-3,-3,-8,3
2,20,1,1,-2,-1,-7,-8,3
-13,-16,-2,-1,-3,-3,-15,-1,3
-4,-4,0,1,2,-3,-45,8,3
-10,-10,-15,-6,-1,4,-3,1,3
5,-19,-3,0,1,0,37,4,3
-14,-21,-1,-1,-3,-1,47,-10,3
0,18,1,0,-1,1,14,3,3
-3,-3,7,0,-2,1,21,0,3
-7,-3,-1,0,-1,-3,36,21,3
1,-9,-3,-3,1,1,-2,-8,3
-1,-2,5,0,0,-5,-37,-27,3
2,11,-4,3,2,8,16,20,3
-4,-17,3,1,4,9,31,31,3
2,-16,-2,-1,-4,-8,-30,21,3
11,-1,-1,-1,-2,3,38,32,3
-6,3,9,-1,0,-8,-64,-10,3
12,-12,0,3,2,7,40,9,3
-15,-14,-20,-5,-4,-7,-31,-16,3
22,4,2,2,0,2,13,-36,3
3,-9,-1,-3,-2,-5,15,-5,3
-1,2,1,-3,-1,3,-10,-5,3
6,-8,5,1,-1,3,36,13,3
-2,-3,-6,-2,0,-3,-40,2,3
7,8,1,4,5,13,51,5,3
1,12,-3,-3,-7,-14,-68,-21,3
-5,-10,1,0,0,0,-2,-18,3
-5,-8,-5,-2,1,3,39,13,3
4,8,3,2,-1,-3,-28,-8,3
-5,25,-4,-2,-1,4,3,19,3
4,-21,-2,-1,2,-2,-28,9,3
-3,2,-1,-1,-3,-2,4,37,3
-6,-13,-2,-3,0,-2,-4,-29,3
8,17,1,-3,2,-1,-7,-9,3
6,16,5,0,-1,-3,-31,-31,3
-7,-11,2,1,0,5,49,-13,3
2,6,-6,-2,-4,-5,11,36,3
-6,10,0,-1,0,2,12,-7,3
0,7,2,-1,0,1,9,8,3
-8,-20,-4,0,-2,-2,22,17,3
6,10,0,-1,-3,-7,-68,-12,3
-6,-17,0,-1,0,-3,-36,-27,3
10,6,0,2,0,6,15,47,3
-10,4,-1,-4,-3,-5,-28,-19,3
-4,-3,0,0,-1,2,9,-5,3
0,-3,-2,-1,0,0,2,3,3
6,14,3,0,0,-3,-38,-2,3
-11,-12,-4,1,0,5,39,-4,3
-4,-6,-2,-3,-3,-13,13,-4,3
6,7,3,1,3,7,49,9,3
-13,-10,-1,-3,-3,-3,-29,-19,3
4,6,-3,-1,2,0,8,17,3
1,-8,1,1,1,2,-23,6,3
0,33,1,2,-2,7,50,-3,3
-2,1,6,-2,-1,-10,-23,-2,3
4,-4,-6,0,0,1,-10,-2,3
7,12,5,1,2,11,63,26,3
-3,21,-3,0,-2,-8,-92,-33,3
1,-32,-5,0,-1,3,92,8,3
1,-19,0,-1,-2,-4,-11,10,3
2,6,-3,-3,0,-3,-7,-56,3
7,1,-3,-2,-3,-4,-9,0,3
3,9,-1,-1,-1,0,-1,32,3
4,8,2,-1,-1,-10,-29,-23,3
-5,-11,-1,-1,-2,1,5,-6,3
-8,-10,-1,-2,1,-1,-3,0,3
1,12,-4,-3,-3,2,-4,-4,3
1,23,9,2,-2,-2,12,11,3
4,10,-3,1,1,3,-9,6,3
-18,-31,-3,-3,-1,-4,-13,4,3
4,7,4,4,1,9,62,9,3
0,10,-8,-3,-2,-5,12,5,3
-8,2,-1,-2,-1,-11,-41,-4,3
5,2,4,3,0,1,56,12,3
-10,-6,-4,-2,-3,-2,35,-27,3
0,0,5,-3,1,4,-5,2,3
3,-11,0,-1,0,5,1,37,3
-1,-7,-4,-1,-2,-15,0,-2,3
-5,2,0,0,-2,7,-2,-19,3
-1,7,-2,-5,-23,-5,-58,-12,3
0,-19,3,2,14,0,43,7,3
-5,-54,0,3,18,8,-58,8,3
3,11,-3,5,-12,-2,-2,-1,3
-5,5,-6,-10,-4,-6,3,-4,3
-11,-16,-3,-1,-16,-1,-14,-30,3
-10,-12,3,2,-5,1,78,24,3
0,11,0,0,8,-18,-111,5,3
-3,9,0,1,2,8,15,8,3
-2,-5,-3,-5,0,3,41,18,3
-2,3,-2,-4,-10,-6,-13,-7,3
-4,-7,-1,-1,20,4,-11,-19,3
3,8,3,2,1,7,25,25,3
-1,1,-3,-4,-1,-6,-7,-16,3
4,13,0,-2,-6,4,-19,-24,3
5,3,3,-4,-7,-4,-3,8,3
-1,-8,-2,1,5,-14,-32,-25,3
3,-3,-2,2,-3,-1,-12,13,3
3,4,0,6,-8,5,11,0,3
1,-2,-2,2,6,-1,30,10,3
-2,-15,-2,6,5,4,39,-26,3
-7,-2,-4,3,-3,-8,-32,-51,3
2,12,0,-1,-2,-2,-12,-15,3
-2,-5,-1,-5,-4,-7,13,-5,3
3,-5,-1,-5,2,5,2,26,3
2,9,3,-4,0,6,36,22,3
5,6,-2,-6,3,-1,-37,-9,3
-13,-6,-2,-1,-5,-4,22,-1,3
2,-10,-4,-1,0,-5,67,1,3
1,0,10,3,1,4,4,24,3
-12,-17,-12,0,12,3,22,11,3
19,-16,1,0,7,6,2,11,3
0,6,4,0,-4,2,-31,8,3
-2,0,-2,-2,-2,-4,37,-11,3
-8,-12,1,-2,-9,-1,35,-5,3
-3,1,0,-2,-8,-5,-15,-42,3
-4,-3,-1,3,8,3,-21,-6,3
6,6,1,-1,-7,-3,-14,-29,3
4,13,1,-1,-4,-6,-27,32,3
0,5,-2,-2,3,3,7,-2,3
-3,-7,-5,0,1,-3,-11,-56,3
-9,1,-5,2,3,9,22,22,3
4,6,-2,-3,-2,-20,-97,-17,3
2,-4,1,1,-3,7,18,43,3
-5,-4,-2,-1,-6,-7,101,12,3
21,10,1,1,2,9,-9,18,3
3,-24,-3,-5,-2,-14,-60,-24,3
14,15,-1,5,-2,5,-12,16,3
0,2,-4,-1,0,2,4,-13,3
0,5,3,-1,0,-5,-48,9,3
5,28,7,2,3,10,62,3,3
-7,1,-15,-11,-11,-8,-18,3,3
0,-19,-1,-3,-5,-7,10,15,3
0,-5,-2,-1,2,-6,-29,-9,3
2,20,5,3,3,12,23,-4,3
-2,0,2,-1,2,-3,-22,0,3
2,0,0,2,2,3,-7,10,3
-8,-2,-5,-3,-5,-5,-2,9,3
2,-3,-1,1,2,4,18,9,3
-7,-15,-4,-1,0,-2,6,-4,3
-14,-17,-4,-4,-2,-12,-46,-2,3
18,40,1,-2,-4,-2,-28,-49,3
-12,-35,-9,-2,2,6,39,-7,3
-5,3,6,2,-1,-7,-66,-20,3
-1,-1,6,2,2,7,-18,-23,3
-6,-13,-4,-3,-1,-1,16,12,3
4,7,-6,-1,-3,0,83,3,3
-2,24,3,-1,-2,-6,6,-13,3
-13,0,1,-4,-2,3,-37,7,3
9,4,0,2,4,5,38,15,3
-2,16,1,-1,-1,-9,-53,-21,3
3,6,4,1,3,3,81,3,3
-1,-13,-9,-1,0,3,16,16,3
-6,-10,-2,0,-1,-4,7,-7,3
0,6,2,0,-1,-1,-32,9,3
0,-12,-1,-2,-4,-2,-2,16,3
5,18,4,1,3,4,-14,-6,3
-1,-10,-4,-1,-1,0,31,4,3
-4,-23,-2,-2,-1,-2,-22,9,3
2,-10,-2,-2,-1,5,24,7,3
19,12,5,5,1,1,-14,-10,3
-11,-13,-6,-4,-3,-2,57,2,3
-1,7,0,1,-1,-3,-65,3,3
-6,-14,5,2,0,9,31,-2,3
4,6,-6,-2,-2,-1,12,36,3
3,1,1,2,6,-2,-10,2,3
-14,-17,5,0,-5,1,19,2,3
1,-10,-11,0,2,5,13,15,3
-7,10,4,0,-4,-3,-25,-45,3
-5,-19,-2,-2,-1,0,-46,5,3
5,13,1,-1,3,1,43,4,3
4,18,3,1,-1,-5,-30,1,3
10,0,0,1,1,0,13,11,3
6,5,-3,0,-1,2,-18,-29,3
-13,-2,-4,-3,-1,-4,17,28,3
2,1,2,-1,0,4,47,12,3
-9,6,-2,-2,-1,-3,-87,-30,3
-20,-22,-4,-4,-6,-16,-38,-63,3
-13,8,-3,-2,-1,3,100,5,3
0,-4,-2,-2,-2,-3,-17,-15,3
8,-10,-1,1,5,10,65,14,3
-11,-8,-4,0,-1,-3,34,13,3
6,0,1,1,-1,-2,-73,5,3
-3,5,-3,-3,-3,-5,-7,-20,3
-4,-5,-2,-2,0,-1,28,8,3
8,-5,4,1,1,-2,-50,37,3
7,10,-2,1,2,-1,15,-16,3
0,11,3,-1,-2,0,23,8,3
7,7,0,0,1,1,-20,2,3
7,3,-1,-2,-5,-1,46,14,3
-2,-2,3,1,-2,1,-24,-2,3
9,-12,1,1,2,2,-7,26,3
-18,-17,-5,-1,1,-4,-26,-35,3
-6,10,-3,-5,-3,-5,7,-16,3
-20,-2,-2,-2,-2,1,24,-45,3
7,17,4,0,0,3,24,14,3
-17,-37,-11,-3,-2,-7,-21,20,3
-4,-5,-1,5,2,4,-31,9,3
12,2,1,1,0,4,33,27,3
-12,-13,-4,-3,-4,-9,-54,-16,3
8,26,19,3,-3,-1,36,-6,3
10,-7,-9,-6,1,5,45,38,3
0,-3,-2,-2,1,-5,-64,-10,3
-3,3,1,-2,2,1,-5,6,3
9,18,6,-1,-3,-1,51,7,3
-2,7,1,0,-3,-5,-71,-28,3
4,-5,-1,1,-1,2,47,18,3
-6,-6,-4,-2,-3,-1,20,-11,3
4,1,-2,2,2,-1,-70,29,3
0,2,4,0,3,0,-5,-8,3
5,-7,-3,-4,0,-2,-46,0,3
-11,-8,-3,-3,-2,-4,-24,-23,3
-4,2,-2,1,-1,4,48,25,3
-5,-6,1,2,1,2,-22,-21,3
24,32,5,0,-2,-4,-17,-12,3
2,-17,0,2,1,-1,2,15,3
3,0,-9,-1,-3,-8,-30,-20,3
-3,-3,1,1,2,7,-7,1,3
-11,-28,-3,-4,-3,-3,60,-6,3
6,22,-2,-3,1,-2,-15,15,3
11,27,1,-5,-1,2,7,34,3
2,-20,-7,-5,1,-1,-27,7,3
2,-8,-3,-7,-2,-1,-14,9,3
0,17,4,-3,0,-4,-19,-11,3
-2,-6,1,-5,0,-2,68,-18,3
-12,9,1,-5,-2,0,7,9,3
2,7,2,0,3,2,47,16,3
-3,-16,-6,-3,-2,0,8,19,3
1,-1,-1,-1,2,6,50,12,3
7,3,5,2,0,-2,24,15,3
0,-6,-4,-1,-1,-8,3,-26,3
-4,2,1,2,-1,-1,12,-41,3
1,-6,-3,1,-2,-2,7,-2,3
-6,-4,0,3,-2,3,12,-9,3
5,7,2,5,2,2,-28,43,3
7,11,-1,-2,-2,-3,-17,-50,3
-12,-25,-6,-6,-2,-7,-36,0,3
-6,21,11,1,1,1,14,-20,3
3,-6,3,4,0,8,11,13,3
-1,-7,-3,2,2,-2,-2,12,3
8,5,2,1,-1,-9,-57,-10,3
10,11,1,0,2,10,66,31,3
2,-3,-1,-1,-1,-13,-49,-33,3
9,0,0,2,-2,6,29,43,3
0,-4,-1,2,-3,5,25,-1,3
1,0,-4,1,0,1,-7,22,3
7,4,1,1,0,6,7,-20,3
-2,-9,-2,0,2,-4,-46,-19,3
-5,4,1,2,1,0,-11,35,3
-5,-6,-4,0,0,-6,-15,-25,3
1,5,-3,-1,-1,5,18,26,3
24,3,2,-3,-3,-1,53,-26,3
1,-4,-1,0,-2,-9,-98,-1,3
2,-1,-3,-1,-2,-2,-72,6,3
-17,-1,0,0,1,-4,13,11,3
-21,-5,-5,-5,-4,1,79,11,3
-15,-3,-3,-1,2,3,11,-19,3
11,-2,-1,0,1,-2,11,7,3
-5,-3,-2,-2,-3,-5,-51,21,3
2,14,-1,3,4,-5,-65,-48,3
1,-3,2,1,-3,8,82,7,3
-11,8,-14,-7,-5,-12,-34,-4,3
-5,-12,-4,0,2,5,9,-6,3
-2,-2,0,3,1,2,-2,23,3
0,7,-4,-3,0,-4,-50,-7,3
1,4,6,2,2,6,36,-2,3
-2,14,4,-2,-4,-7,2,-58,3
-10,-19,-4,2,1,3,12,25,3
-8,-14,-4,-5,0,-9,-94,-38,3
11,-12,4,1,-1,2,61,44,3
1,20,-3,-2,3,3,20,3,3
-11,-16,-2,-3,-3,-1,-21,7,3
-16,-7,-4,1,-2,-2,17,-25,3
9,26,4,0,-1,-3,-1,19,3
-5,-31,0,0,-2,-2,-37,0,3
3,10,-10,-2,3,5,17,9,3
9,-7,-2,1,-2,0,46,10,3
-1,14,3,1,1,2,5,-6,3
-9,-15,-8,-3,-2,-4,-50,-11,3
0,-2,5,0,-2,-3,-18,16,3
4,6,1,-2,0,3,27,-11,3
-3,-14,-3,0,-1,2,15,-6,3
0,2,3,-1,1,-5,-18,28,3
-3,-1,1,-3,-3,2,44,27,3
-5,-13,-1,0,0,5,10,-7,3
-9,-6,-1,-4,-4,-17,-42,-15,3
-4,3,-3,-1,-3,5,43,1,3
2,5,0,0,1,1,-34,-20,3
12,3,-1,-1,2,9,69,10,3
-14,-18,-5,-6,-3,-10,-71,-48,3
-10,3,-2,-1,1,0,13,7,3
-1,-3,1,0,0,-3,-22,-2,3
6,4,2,1,-3,-2,7,6,3
-12,-8,-2,-2,1,2,11,-27,3
18,10,0,-2,0,-6,2,25,3
14,6,7,5,-3,-3,21,11,3
2,20,2,1,0,-1,-14,3,3
-1,-31,-6,-3,0,3,29,34,3
-17,2,3,0,-1,2,10,34,3
-14,-15,-9,-6,-1,-2,12,4,3
21,19,-7,-4,-2,-4,-27,-29,3
30,17,4,3,-2,1,-11,2,3
-6,-37,-8,-1,-1,1,40,4,3
1,-16,-8,1,2,2,-15,11,3
4,-3,3,2,0,0,-5,14,3
-6,-9,-3,-2,0,2,52,17,3
8,13,2,1,-1,-5,-97,-40,3
-4,2,3,1,-1,1,-48,-4,3
22,-8,2,-2,-2,0,12,29,3
-10,-8,-1,2,1,6,69,-19,3
-2,10,-6,-4,-3,-6,-16,-8,3
-6,-1,0,-2,1,-6,-4,-53,3
-4,3,3,0,0,4,-5,8,3
-2,22,2,0,-4,-1,-4,1,3
6,2,0,0,1,-1,-8,-5,3
-1,15,1,-2,1,-2,0,0,3
1,-20,-10,-5,-5,-10,-19,-62,3
-9,-3,2,7,7,13,48,31,3
34,0,11,3,2,-3,-16,-37,3
7,-25,-7,1,-4,1,46,30,3
4,3,0,-1,3,-6,-9,-13,3
10,3,-1,-3,-1,-10,-31,-1,3
11,0,-1,5,1,11,51,-3,3
-10,6,5,0,-1,-2,-26,-81,3
-18,-8,-1,1,1,2,4,34,3
-12,-3,-2,-3,-5,-5,-41,-6,3
-15,-3,-5,-1,0,2,32,-19,3
7,5,-3,-6,-3,-11,-30,12,3
-24,-3,1,2,-2,3,7,14,3
-2,14,-4,-4,-6,-14,-65,-47,3
5,10,2,-1,3,3,37,38,3
-28,3,1,0,2,0,12,24,3
14,3,3,-2,-5,-11,-48,-3,3
7,-10,-6,0,2,9,11,17,3
-9,-19,-2,-5,-4,-4,22,-13,3
-9,-11,-1,-1,3,1,-4,-6,3
-1,1,-5,-2,-1,-4,42,16,3
10,22,9,4,4,5,-8,-3,3
-35,-32,-14,-8,-3,-7,-30,-37,3
15,8,1,3,1,3,4,-6,3
-3,6,4,0,1,-1,-60,18,3
12,-5,0,0,-2,-5,-25,-9,3
4,7,-2,-1,3,9,40,11,3
10,13,9,4,-2,0,57,27,3
-19,-1,-3,0,0,-3,-38,-21,3
-13,-11,-1,-1,2,11,44,2,3
1,5,2,1,-1,-7,-26,0,3
6,6,-2,-4,-6,-4,-26,-6,3
1,-3,-1,0,0,3,14,-1,3
-3,-5,2,1,4,5,38,7,3
-10,-7,-4,0,-4,-1,-2,-6,3
-7,-32,-4,0,2,1,-7,14,3
-9,-2,-2,-1,-2,2,14,-12,3
11,22,5,-1,1,-3,-14,2,3
8,15,-1,0,0,0,37,22,3
3,5,1,0,-2,-2,-20,-2,3
1,-6,2,1,3,7,18,7,3
-5,14,-2,-2,-1,-2,25,-17,3
5,5,4,1,-4,-6,6,5,3
5,-11,-7,-2,1,5,29,-15,3
-1,-3,-1,-1,3,-2,-48,0,3
-4,2,0,0,-2,1,-3,49,3
-15,-4,-5,-4,-2,-10,-81,-12,3
6,6,2,1,2,2,20,-11,3
-17,-17,-4,0,-1,10,52,6,3
-19,-16,-4,-4,-2,-4,61,23,3
4,-4,0,-1,6,4,-15,-7,3
13,3,-1,-1,3,1,-24,28,3
-4,1,-2,1,0,-3,49,8,3
-9,-21,-7,-4,-4,-12,-40,-11,3
5,-10,1,2,-3,4,19,19,3
-9,12,-11,-2,-2,-3,9,-3,3
-9,20,3,-5,0,-9,-18,16,3
-2,-7,1,0,-1,3,34,-13,3
12,26,1,0,1,4,-21,16,3
-1,3,7,5,2,-9,-128,9,3
-11,-11,-5,-2,-4,2,101,5,3
5,-2,-4,-1,1,0,-49,-16,3
3,15,6,0,5,8,16,-5,3
-35,-53,-9,-7,-4,-2,23,1,3
6,-3,-3,0,-2,-8,33,-6,3
3,0,-1,-3,-4,5,68,16,3
1,-12,-1,3,2,2,-55,11,3
-6,26,8,-2,-5,-12,-22,-78,3
8,10,-6,0,-1,0,-29,-44,3
-1,-12,-1,-1,-1,-2,-34,-10,3
-2,10,0,-2,-2,-4,21,21,3
4,9,2,2,2,6,82,10,3
17,-5,0,2,-1,-5,-67,19,3
32,50,5,2,0,-3,-33,4,3
-12,-16,2,-2,-2,-1,26,-7,3
23,-1,-5,0,2,6,31,28,3
3,-9,1,0,-1,4,4,3,3
-4,-2,-3,-1,-3,-3,-9,-24,3
0,-5,2,2,0,1,8,5,3
-5,-1,-2,-2,-1,0,10,17,3
-1,5,2,-2,-2,2,67,36,3
12,-37,2,2,0,-4,-82,16,3
10,-5,-7,-4,-3,-1,59,0,3
-7,-3,-3,-1,1,-6,-88,19,3
8,17,7,1,0,1,13,14,3
-3,11,-8,0,3,11,50,-7,3
5,5,-2,-3,-3,-8,-57,-24,3
1,0,2,0,-6,2,25,-3,3
5,28,3,-1,2,-1,2,3,3
-11,-1,0,-3,1,0,24,-10,3
-4,3,1,1,-4,2,-8,41,3
15,12,-3,-2,1,-2,0,-33,3
-13,-2,-3,0,-3,-3,-42,-45,3
-21,-10,-1,0,-4,-7,8,12,3
-16,3,-5,-1,2,5,0,14,3
1,-13,3,-2,-5,-13,-21,10,3
-4,-13,-3,-3,-1,1,26,-10,3
0,-12,0,4,1,4,1,-7,3
-6,7,1,-1,0,-3,23,8,3
13,16,4,3,3,6,11,9,3
1,1,-2,-3,1,1,-10,-6,3
1,-3,-3,0,0,-3,3,-1,3
-1,16,3,1,0,0,23,-16,3
-4,-12,-5,-1,-2,-4,-23,6,3
3,-21,-5,-1,1,5,-10,10,3
-3,30,0,-4,-5,-6,-10,-50,3
3,-8,2,1,0,-4,18,-20,3
-19,0,0,-3,-1,-4,2,-4,3
7,-11,-2,1,0,-4,-17,5,3
10,27,9,-1,1,6,23,25,3
-9,-50,-6,-2,-2,-7,-78,-68,3
4,4,-3,-2,-1,-8,9,12,3
-14,-5,-2,0,-2,4,28,-2,3
-1,-5,0,-2,1,-4,-42,-3,3
9,9,-1,-1,-1,10,65,38,3
7,1,2,1,2,5,26,21,3
1,-2,4,1,1,-4,-23,0,3
-2,-8,-3,1,2,0,-27,-14,3
-1,-16,3,1,-3,-13,-5,6,3
5,19,5,5,2,10,13,4,3
0,1,-13,-8,-7,-7,-25,-12,3
0,3,-4,-4,0,-2,-17,-18,3
17,1,-1,1,3,8,-27,-4,3
-11,-26,-2,-1,0,1,30,18,3
4,-1,5,2,1,-2,-13,-5,3
-1,1,2,0,-2,-2,-1,6,3
-6,8,0,0,-2,-5,-3,-16,3
-1,0,-3,-3,-2,0,13,-21,3
6,7,0,-1,-2,-1,-25,28,3
-2,-16,-3,-1,0,-4,-13,7,3
-6,17,4,-1,0,0,3,-7,3
-3,-6,-3,-2,-1,-2,-29,-13,3
-1,-5,0,1,0,2,34,-10,3
-7,-5,-2,0,-1,-1,-6,-10,3
1,2,-1,0,0,-12,-13,-8,3
-1,1,0,0,-2,9,-48,-2,3
0,-2,-1,-1,3,9,56,8,3
-4,-16,-1,0,0,-12,-77,20,3
0,18,2,-1,-5,-8,8,1,3
-5,2,-8,-2,1,5,12,-3,3
1,-16,-1,1,-1,-1,3,9,3
1,3,-1,-4,3,-1,3,-42,3
2,-13,-1,-3,-1,3,8,-8,3
-1,24,4,-3,-5,-10,2,8,3
6,14,-2,1,1,2,-10,8,3
12,-12,-5,1,2,2,14,-3,3
-6,2,-2,-1,-2,-4,-32,-30,3
-8,-5,1,1,-3,2,33,0,3
-3,6,3,2,5,-2,-73,27,3
-2,-2,-1,-2,-3,6,78,1,3
-8,-7,-4,-1,1,-4,-45,1,3
-3,-9,-1,-1,-2,2,75,-8,3
-1,2,-2,-2,-4,-4,-68,-11,3
-3,-8,1,2,1,5,5,12,3
6,0,1,1,3,4,30,15,3
5,0,3,0,0,-4,-6,1,3
6,44,8,-1,0,-7,48,4,3
-7,-75,-6,2,-2,3,-15,34,3
2,-2,-4,-1,1,6,40,13,3
3,23,-1,-1,-2,-4,-15,5,3
0,-3,-1,-1,0,-1,35,-4,3
2,18,3,-1,-1,-4,-16,18,3
-1,-2,-1,1,1,6,13,23,3
-6,-12,-2,-3,-2,-12,-8,-35,3
-17,-14,-1,-1,3,11,30,-8,3
-5,15,-1,-2,1,-4,-23,1,3
-5,-12,-5,-1,-2,-2,29,4,3
0,10,5,4,3,4,-24,5,3
-6,-3,8,0,-2,-3,17,-47,3
3,1,-21,-3,-3,-1,31,-16,3
-4,11,1,3,3,6,20,11,3
7,-5,3,0,1,-2,-21,8,3
9,1,10,2,-3,-4,-23,14,3
13,25,26,7,2,5,20,4,3
-17,-16,-14,-12,-10,-17,-42,10,3
-3,-37,-46,-5,6,14,57,11,3
21,23,-20,-7,-4,-2,18,4,3
8,-15,-6,1,-2,2,-12,30,3
6,-18,21,2,2,3,35,14,3
13,-2,17,5,0,2,16,19,3
-8,-30,12,4,-1,3,-16,13,3
11,36,11,-1,-2,-1,35,31,3
2,12,-1,0,2,0,18,-14,3
3,2,8,0,-1,1,11,5,3
-11,-16,-7,0,1,-5,-48,-6,3
-8,0,-4,-4,-4,-3,6,-9,3
-1,-4,-8,-2,0,3,2,9,3
9,8,0,2,-2,-2,-3,41,3
-16,-5,-2,-3,-2,1,102,-67,3
-4,-3,-5,-2,-1,-4,-16,-1,3
8,10,-10,0,0,3,15,11,3
-2,4,5,0,1,4,16,3,3
5,-1,-3,-1,-2,-4,-29,1,3
-2,-2,-1,-1,0,7,53,-21,3
-7,-1,1,-2,-3,-1,6,-17,3
1,3,-1,-2,-3,-11,-9,-13,3
1,-9,-7,-2,0,0,-19,7,3
5,4,-2,3,7,10,45,13,3
1,31,3,-2,-2,-8,-122,4,3
-9,-2,-7,-6,-2,-7,-5,-42,3
14,6,1,-1,0,-6,-11,15,3
-4,-9,3,0,1,-2,-11,16,3
35,17,1,-1,0,7,30,-6,3
-4,9,5,-1,2,1,5,-16,3
-15,-19,-7,-2,-4,-8,30,-29,3
3,10,0,0,-1,-4,-100,-7,3
3,-9,1,0,1,-4,1,-11,3
-11,-2,-1,-1,0,0,-2,-9,3
2,3,5,1,2,7,0,15,3
-2,2,-2,-1,-3,-4,14,-7,3
-13,-10,-4,0,-1,2,22,-4,3
1,-22,0,1,-1,1,-18,-16,3
2,11,2,0,0,-3,8,4,3
-13,5,4,-2,-3,-8,-72,-35,3
-8,-6,-8,-1,1,2,50,13,3
-1,-4,1,-1,-1,2,10,47,3
-6,-16,-6,-2,0,1,-11,8,3
4,17,1,0,-1,3,37,-2,3
1,-17,-1,0,-1,-5,6,-24,3
-3,6,-1,-3,-1,-7,-36,1,3
-2,9,-4,-1,-2,1,6,22,3
-7,-16,-6,-3,-1,-7,-14,-8,3
-1,16,7,2,3,7,50,33,3
4,-9,-4,-2,-2,-7,-83,-24,3
-4,1,-1,-1,-1,4,68,21,3
1,-2,-4,-2,-3,-4,46,-23,3
0,13,2,0,-2,-2,-18,-8,3
-1,0,-1,0,-1,3,-3,18,3
5,1,1,0,2,-1,-43,-7,3
-12,-9,-3,-1,-1,0,39,21,3
-8,9,0,-3,0,-1,-9,-4,3
-4,1,-3,-1,2,0,9,-13,3
1,0,-1,0,-1,-2,-21,3,3
0,24,2,0,0,2,4,26,3
11,-9,0,1,1,3,-28,21,3
10,4,16,7,7,13,73,-4,3
-15,-10,-13,-13,-11,-30,-123,-66,3
1,-2,0,-1,-1,8,88,15,3
-18,-13,-7,-4,-7,-8,-28,-39,3
6,0,0,1,1,7,45,38,3
-2,6,4,0,1,4,14,12,3
3,-5,3,2,0,0,-8,22,3
4,-9,-4,-2,0,-3,-20,-9,3
-1,2,-6,-3,-4,-7,-3,6,3
7,-3,2,2,1,4,20,-14,3
-2,-31,-18,-6,-6,-11,-73,-24,3
6,-4,0,2,2,3,-20,22,3
-10,8,-3,-5,-4,-12,26,-22,3
4,-3,1,1,4,9,5,21,3
-4,-3,4,1,1,0,-2,-11,3
0,15,-2,1,-2,3,8,8,3
4,1,0,1,0,4,31,10,3
-21,5,-1,-1,-2,-4,-57,9,3
3,3,-1,-3,0,-10,-58,1,3
2,-1,1,2,2,7,44,23,3
-15,-11,0,-5,-5,-12,-63,-44,3
9,8,-3,3,2,12,35,17,3
-4,-23,-3,-1,0,5,62,40,3
7,2,-1,0,-1,-1,34,27,3
-4,-2,-2,-2,-2,-2,-28,3,3
-17,-12,-4,-3,-2,-9,-11,-11,3
6,9,5,4,6,11,40,-3,3
-16,-30,-1,-3,-6,-18,-86,-1,3
16,56,-1,1,-1,9,64,10,3
3,-11,-2,-1,-1,0,66,4,3
0,8,0,0,1,-3,-34,2,3
-7,4,0,0,3,1,22,-3,3
0,-9,0,0,1,-1,-60,0,3
-2,-5,2,-1,-1,-2,-18,-46,3
-4,2,-1,-1,-1,-1,11,-21,3
1,-5,0,-2,-2,0,-4,-17,3
-6,-17,-4,-1,-1,-1,-31,16,3
14,1,4,-2,1,3,37,-40,3
3,18,-1,-3,-4,-17,23,-32,3
-14,-25,-13,-5,-3,-3,-59,-42,3
0,-5,-1,2,0,5,43,7,3
-6,0,-1,0,-1,-9,28,18,3
-9,-5,0,3,2,5,-5,-17,3
2,1,4,0,0,2,18,-8,3
-3,10,-2,-3,0,-4,53,15,3
-6,-31,-2,-1,0,-2,-61,-13,3
11,-30,-4,2,-2,2,2,14,3
-1,6,-1,1,2,-6,31,8,3
-5,-12,-1,-3,-4,1,33,-20,3
3,25,4,0,1,1,-42,31,3
0,3,3,-2,-2,3,-2,1,3
-4,-14,-3,-2,1,1,-4,-10,3
7,-10,-2,1,-1,-7,-50,-13,3
-1,-3,-3,-1,-2,-3,29,15,3
-6,-2,1,-1,0,0,-19,-6,3
1,19,-5,-2,-2,5,44,-1,3
5,13,3,0,-1,-9,-68,13,3
-1,-24,-1,2,0,1,-13,-1,3
-6,-3,-11,-3,-3,3,70,-47,3
15,17,5,0,0,-4,24,21,3
-14,-14,-3,1,4,0,-14,-15,3
3,5,-6,-3,-2,-1,-17,10,3
-8,2,0,-3,0,-2,0,9,3
-1,-8,1,1,-1,5,28,8,3
-4,6,-1,-3,2,-3,-82,-47,3
1,-8,4,1,0,-5,43,-5,3
0,-20,-4,-3,-1,-3,-15,6,3
6,13,1,0,1,-1,-2,13,3
11,-7,0,2,-2,4,38,17,3
8,33,2,-3,-5,-5,-36,-50,3
-8,11,4,0,0,4,-12,48,3
-5,-17,3,-1,-2,-5,69,-17,3
-22,-36,-19,-5,-1,-8,-41,-29,3
6,-4,-8,0,3,6,2,24,3
-3,6,0,0,-3,2,56,1,3
-2,8,2,0,-1,-4,-37,-20,3
-8,-12,0,1,-1,8,42,0,3
-3,2,1,0,2,4,28,25,3
-2,4,-2,-2,0,-4,-33,-17,3
-2,-2,0,-2,-2,0,-30,7,3
0,3,2,-1,0,0,7,5,3
0,3,1,1,-1,2,-1,8,3
8,8,5,3,-2,-11,-59,-13,3
-17,-3,-3,-1,0,-1,-37,-39,3
11,8,2,0,-3,-2,-4,10,3
-10,12,4,-1,0,3,30,26,3
0,-7,-6,-5,-1,-3,15,17,3
8,3,1,1,-1,-1,-10,10,3
-8,2,0,-2,0,-1,28,-1,3
-6,-20,4,0,3,0,-3,-7,3
12,19,8,-1,0,2,18,8,3
-1,-12,-6,-2,2,1,-15,15,3
12,23,5,1,1,-7,-43,19,3
8,-25,-4,1,-2,4,55,8,3
0,-2,0,1,1,1,-59,-17,3
0,3,-1,1,3,2,30,0,3
1,46,7,0,-5,-1,-33,-6,3
-5,-8,-3,0,0,-2,-18,9,3
-27,-3,-2,-3,-2,-13,-14,-53,3
2,-7,-1,1,4,10,12,-14,3
-7,3,-4,-2,-4,-7,3,10,3
-7,-9,-2,-1,-3,-2,-13,-7,3
-3,-10,-4,-1,-1,3,23,3,3
6,11,1,0,0,-5,-42,16,3
8,-16,0,-1,2,7,41,-10,3
2,19,4,-2,-2,-1,-20,-4,3
7,-38,-5,2,0,7,39,18,3
-3,23,10,-3,0,-2,28,-10,3
-9,-11,-7,0,0,-6,-64,-29,3
6,23,2,1,1,0,31,13,3
10,6,-6,1,2,2,-1,5,3
11,-35,-1,1,-3,3,18,26,3
-16,-19,-5,-4,-1,-4,27,-3,3
6,13,-1,-2,-2,0,28,13,3
0,3,5,-1,0,-4,-38,5,3
-3,2,-5,1,0,2,4,1,3
-6,-7,1,0,1,1,16,7,3
-2,-12,-7,0,0,-5,-22,-6,3
5,11,0,-1,2,6,9,1,3
0,3,-3,-1,-3,-10,-69,-10,3
6,0,0,1,1,7,59,13,3
1,6,1,0,-3,-1,-34,0,3
-4,3,3,1,1,10,16,9,3
2,4,-3,-4,-5,-10,20,-8,3
1,-5,-1,0,0,-1,9,-23,3
7,-17,1,0,-3,-1,9,1,3
4,9,-1,-3,2,-2,22,21,3
-9,16,-4,-1,-5,-4,-30,-6,3
4,3,5,0,0,5,43,32,3
1,-35,-9,0,3,-2,-17,-13,3
-6,5,-1,-3,-4,-4,-12,-26,3
3,7,3,1,-1,1,23,2,3
1,-4,0,1,1,-1,-22,18,3
-2,18,0,-1,1,2,28,-6,3
-7,-15,-2,-1,-2,-6,13,-1,3
-5,8,-6,-7,-3,-11,-73,-30,3
3,4,-3,0,0,5,32,-7,3
-2,3,-1,-3,-3,-6,-54,-12,3
7,0,-2,0,0,-2,-57,11,3
2,-10,0,0,-1,5,10,-40,3
4,-4,-6,-3,0,-12,-64,13,3
0,10,1,0,-2,2,20,8,3
8,6,3,2,1,3,9,36,3
-7,-10,-4,-2,-1,-2,13,-1,3
24,-1,3,-1,0,7,5,31,3
7,-4,-1,1,-1,-9,-10,-5,3
-11,2,-2,-1,0,-1,-43,21,3
-1,32,-9,-2,0,0,51,2,3
-4,-14,-5,-3,-1,1,-3,-4,3
-9,-29,-6,-1,0,-1,0,-17,3
1,5,-5,-3,-3,-7,15,-13,3
-3,-3,4,1,4,5,-12,-10,3
-3,11,1,1,-1,0,3,2,3
-5,0,-5,-2,2,-1,-9,-3,3
