-98,36,-9,-4,0,14,14,1,2
32,-8,12,16,6,-21,46,18,2
46,78,20,-5,-5,-7,-100,-29,2
-7,-18,6,3,8,24,31,15,2
44,-38,-14,-4,-1,4,-15,25,2
104,74,-26,-26,-13,-11,19,-10,2
26,36,11,13,7,13,63,13,2
103,-43,30,20,14,18,-17,50,2
-21,127,-23,-22,-20,-50,-95,-83,2
-38,-91,-23,-2,0,5,66,11,2
-53,-111,-22,-26,-11,-19,-51,-20,2
-6,49,-4,3,0,18,22,3,2
107,41,48,21,16,18,72,79,2
-35,-96,-61,-14,-11,-16,63,-28,2
-108,106,-13,-15,-10,-5,-87,-53,2
-84,81,2,-1,0,-19,-35,-38,2
-12,-125,15,4,0,14,34,37,2
-58,-5,-19,-15,-9,-15,-53,-53,2
74,-42,15,24,7,10,75,39,2
-30,-40,-6,-2,-2,-9,8,22,2
28,95,-17,-23,-13,-4,-14,-35,2
102,46,52,26,21,17,-37,46,2
-71,-76,-24,0,-8,-19,-10,-19,2
46,-32,10,-2,-2,13,39,-10,2
-101,-70,-44,-21,-9,-17,-9,-5,2
68,-8,16,15,8,21,29,12,2
-32,36,6,-10,1,-30,-80,-9,2
14,105,8,10,7,20,77,-9,2
-93,-52,-33,-16,-11,-28,-52,-33,2
87,87,25,15,5,12,8,59,2
55,2,-14,-21,-8,6,41,-27,2
39,-107,-1,2,1,-1,-57,3,2
41,-14,-12,1,-2,-8,85,-4,2
-87,84,18,0,0,-10,-60,-13,2
-11,58,4,-4,2,12,40,-3,2
8,-3,-5,5,-3,-13,-31,-1,2
28,-59,12,5,4,20,88,22,2
-59,-128,-7,3,-1,44,13,-22,2
63,121,4,-12,-5,-30,33,36,2
0,36,-14,-44,-8,-5,-75,-11,2
-50,-28,-2,39,2,-6,8,9,2
99,102,27,17,7,8,38,13,2
-79,-128,-29,-31,-4,2,-32,-35,2
93,115,0,16,-1,2,-7,-2,2
4,33,-4,-22,-5,-8,-10,-12,2
39,4,24,4,4,-3,4,13,2
20,-23,4,15,1,12,-11,-1,2
2,-85,3,0,0,-15,-7,9,2
-47,55,-31,-27,-11,1,40,-37,2
-33,-53,-28,-3,-4,-8,-80,-33,2
-38,31,4,-3,-1,8,39,-20,2
29,-77,-2,4,0,-14,-30,6,2
-85,-109,-1,-2,-1,-3,-12,1,2
111,63,8,-5,-4,-8,18,31,2
-49,-122,-15,-3,-2,7,19,-16,2
22,13,-1,7,3,9,16,14,2
127,65,23,0,3,-1,-41,25,2
-43,-3,-11,-5,-5,0,-19,-15,2
30,-97,14,23,11,10,-16,10,2
-23,92,-5,-11,-11,-28,-2,-13,2
32,-63,0,-5,3,-1,-62,5,2
10,4,17,9,2,28,59,32,2
-57,52,-12,0,-10,-27,-16,-54,2
104,89,9,16,6,15,2,18,2
-54,-77,8,13,6,4,-22,2,2
-86,-18,1,-2,-4,-23,-8,-15,2
75,27,-7,-8,-2,8,8,37,2
-128,-61,-14,-15,-1,10,22,-46,2
0,43,9,5,4,-12,-33,12,2
6,-6,1,5,-2,0,16,9,2
3,45,15,1,-1,0,-29,6,2
-31,17,0,-4,-4,0,3,-13,2
113,52,4,7,9,21,-14,36,2
-128,-128,-33,-20,-16,-32,6,-52,2
-29,98,9,6,1,0,11,20,2
-68,-57,-11,-8,-8,-2,15,3,2
42,48,9,-3,3,5,-47,-41,2
60,96,3,7,6,3,-43,6,2
104,27,19,23,8,15,64,35,2
35,38,-14,-9,-5,10,-2,-11,2
-8,38,7,5,1,-11,23,30,2
-88,-73,-31,-32,-11,-14,-30,-25,2
127,74,42,11,4,-4,-45,36,2
-128,-112,-39,-2,-7,16,-53,-49,2
27,10,4,-3,0,-14,39,19,2
61,-58,-8,16,8,3,-4,-5,2
-14,-36,-2,-13,-4,2,53,10,2
47,-22,3,-9,0,4,-6,8,2
7,106,-6,2,-10,0,-2,-31,2
-57,-74,-11,-8,0,-2,39,3,2
-122,-87,-13,-5,1,-2,-11,-20,2
-2,69,8,2,-5,-4,0,-19,2
-26,25,8,-5,-7,-4,57,-14,2
54,98,22,18,8,5,61,26,2
-16,-31,-18,-13,-6,8,-12,-4,2
127,61,19,8,5,-1,64,36,2
-43,-62,2,4,0,-8,-72,-43,2
-105,-69,-50,-30,-14,-9,-19,-24,2
89,44,5,7,1,5,7,19,2
35,2,10,-2,1,3,40,20,2
18,-115,1,6,5,-1,-31,14,2
61,-48,8,2,-1,11,-65,0,2
5,29,-18,-22,-6,-28,18,-22,2
-9,-19,8,17,1,-3,44,15,2
6,-24,11,-4,1,10,-5,8,2
14,101,-2,11,-2,-1,6,7,2
41,-57,4,-1,5,13,49,12,2
-87,-11,-7,-6,-4,3,-18,-40,2
-8,-45,-7,-2,-2,-22,-53,16,2
50,109,21,2,0,9,86,5,2
58,-12,2,2,1,-1,-8,6,2
34,75,7,4,5,1,63,6,2
-81,13,-25,-21,-9,16,-11,-27,2
77,-28,6,0,-1,-20,-47,-21,2
57,104,12,18,5,8,27,28,2
28,80,-4,-17,-7,-10,-28,0,2
21,-28,-4,-4,-3,-3,35,3,2
8,14,3,1,1,11,-26,3,2
-17,-6,16,16,3,5,30,4,2
-52,-128,-28,-16,-6,-12,-62,-6,2
-13,72,-1,-8,-4,25,75,-11,2
38,-33,-2,9,0,-3,22,8,2
12,10,8,11,-2,-21,-65,-7,2
-17,-52,1,-11,1,0,-7,10,2
17,8,1,15,1,7,14,1,2
79,41,13,1,6,16,47,28,2
-103,-33,-27,-18,-10,-14,-60,-38,2
0,-41,0,-5,-4,-6,-11,-2,2
23,1,5,2,5,-3,-64,24,2
4,-19,6,6,1,-3,27,1,2
-4,33,7,5,1,10,-12,-10,2
-37,-101,-26,-17,-8,-5,-23,-26,2
80,-53,-8,-6,-1,-16,23,7,2
-39,40,12,9,2,-11,-26,-1,2
35,-23,-15,-17,-8,1,-4,-21,2
-23,-25,15,26,12,8,31,24,2
-8,-6,-9,-6,-4,6,-22,-14,2
31,-6,12,2,0,-17,-61,10,2
-108,-14,-21,-3,0,6,57,0,2
91,71,9,3,4,10,8,9,2
-21,-10,-6,-20,-4,-15,23,4,2
46,5,-2,5,-5,10,-47,2,2
-23,-39,15,-4,4,-2,-8,-1,2
42,92,7,11,7,10,-6,10,2
73,-47,-4,6,-1,-2,-20,-10,2
-50,-26,-36,-24,-9,-2,18,-26,2
39,18,-3,-11,-5,-15,31,20,2
62,-41,6,5,2,4,-12,8,2
-73,42,6,6,1,0,3,-24,2
-37,-75,-3,-1,-6,-5,-25,-15,2
17,-43,-2,-1,-4,6,-9,5,2
-3,-3,1,0,1,-11,9,9,2
-8,23,8,13,6,15,-18,20,2
71,72,13,5,5,-1,74,37,2
-128,-20,-37,-15,-10,-4,-45,-51,2
66,-43,4,-6,-6,-4,31,12,2
105,53,25,23,8,7,-12,26,2
-107,-69,-15,-14,-6,3,-68,-31,2
56,6,24,8,3,-6,-2,12,2
-52,50,-13,-5,-4,-28,-45,-16,2
6,-85,-19,-5,-5,-2,29,-5,2
-20,8,12,2,5,7,14,12,2
-34,-6,-5,-10,-2,5,5,9,2
-18,-28,14,2,-1,5,-11,-18,2
-49,35,16,19,-1,-4,3,11,2
-65,33,-22,-22,-5,-7,-39,-35,2
74,1,-7,-2,2,2,73,20,2
31,26,-3,0,1,-3,-1,2,2
127,24,11,-2,1,3,38,24,2
37,-27,10,14,1,4,-20,-4,2
-25,16,-7,4,-2,-3,-41,-14,2
8,-11,-2,-1,-2,8,32,11,2
-89,-36,7,7,4,-2,84,-7,2
68,60,-5,-15,-9,-1,-86,-16,2
97,4,-2,1,5,17,108,22,2
-2,20,-16,2,-6,-21,-41,-7,2
11,21,0,-12,-5,-9,-23,-9,2
3,95,32,26,14,23,45,30,2
-94,-5,-11,-6,-9,-10,-24,-32,2
-11,-14,-18,-12,-5,-6,-18,-5,2
102,89,9,4,7,21,17,27,2
-80,-104,-24,-16,-9,-10,24,-4,2
-57,18,19,22,4,-9,-70,6,2
41,-7,5,3,5,10,-6,0,2
-122,15,-18,-21,-11,-12,-21,-26,2
-16,-79,6,10,3,2,12,3,2
26,44,1,-3,-2,21,-29,-1,2
-34,-84,-2,2,-4,-24,93,-1,2
37,-10,0,-2,0,-2,-87,7,2
-54,84,-11,-9,-4,-10,-20,-14,2
72,-19,6,12,2,22,93,4,2
-46,42,-3,-16,-3,-15,-64,-8,2
15,-23,21,21,3,2,5,-1,2
37,-99,-12,-7,-3,-11,22,16,2
121,115,9,6,5,2,-26,21,2
-51,-25,-7,-11,-4,2,-17,-11,2
-14,-116,-21,-3,-3,-11,12,-12,2
24,61,24,4,1,1,-10,-12,2
31,13,6,1,-1,-5,-44,20,2
46,-22,16,15,3,21,2,-1,2
-30,-84,-33,-20,-7,-10,-8,-34,2
33,24,-14,-12,-3,-11,-2,17,2
-13,-78,9,3,1,2,34,11,2
39,18,11,17,6,13,35,22,2
-13,95,-5,-10,-7,-9,-57,-13,2
6,-57,10,9,9,16,5,11,2
-92,-75,-28,-37,-11,-10,-14,-26,2
30,34,25,26,4,7,25,10,2
30,-4,7,2,1,2,22,17,2
-70,6,-22,-9,-8,-14,-23,-20,2
-82,-32,-3,-3,1,-3,-26,-15,2
48,80,-5,-30,-6,5,-22,-5,2
-36,31,3,21,0,-1,20,6,2
-15,-87,10,7,4,10,26,0,2
30,9,-4,0,-3,-3,3,-12,2
-21,-55,-8,-1,-2,-4,-9,-3,2
-50,15,2,-8,-3,-5,5,1,2
83,-75,11,19,10,11,57,33,2
-76,25,-31,-15,-13,-12,-84,-53,2
53,2,5,7,-1,-13,6,25,2
-40,-49,-3,-7,2,13,60,-1,2
25,40,-5,2,-2,-7,3,-4,2
55,24,32,21,10,9,42,24,2
-112,-16,-10,-7,-4,2,-62,-26,2
-7,-15,-35,-27,-10,-12,-58,-11,2
30,78,12,1,2,20,61,3,2
-16,5,6,10,0,-25,-45,10,2
50,8,6,4,-1,-14,-29,5,2
-7,-105,-3,0,0,1,2,2,2
19,7,-15,-6,-4,-4,10,-12,2
67,15,2,-15,3,10,27,14,2
21,-35,6,21,3,-3,-38,-13,2
49,96,35,27,10,24,41,43,2
-20,-73,-34,-37,-20,-24,-36,-25,2
46,-14,-16,-13,-6,-14,-18,-14,2
60,17,7,0,4,7,48,27,2
-11,14,-10,-2,-2,0,-49,-41,2
-9,113,9,-7,-2,-3,68,5,2
31,-21,6,13,-2,-3,-5,-1,2
-41,9,-15,-17,-4,0,-2,-19,2
41,-15,18,26,5,6,-8,12,2
-6,8,10,17,8,12,5,15,2
-39,-25,-11,-9,-6,-20,-11,-12,2
-34,25,11,-3,2,12,26,3,2
24,43,-6,-14,-4,-9,40,27,2
-41,-39,-6,10,-7,-40,-121,-29,2
-50,-19,9,11,4,14,86,5,2
3,28,-23,-13,-7,1,-46,-12,2
-38,-5,-3,-9,-2,8,4,-17,2
104,-13,-15,-16,-4,-4,-7,-10,2
40,-38,17,13,8,9,-30,24,2
40,-67,3,8,-3,-4,12,4,2
-16,117,6,-8,-2,-1,10,-1,2
-64,-12,-5,1,5,6,-23,-10,2
-36,-34,-7,-3,-2,-1,19,-7,2
-11,36,-2,-10,0,4,22,2,2
41,-28,3,10,1,-5,-10,10,2
97,-17,27,6,4,12,-13,25,2
26,16,-6,-11,-3,-7,30,-16,2
-111,11,-27,-1,-13,-15,0,-31,2
51,-13,3,4,7,-4,-15,5,2
14,72,33,23,8,6,3,40,2
-87,-45,-18,-19,-7,8,21,-9,2
-8,-47,-29,-21,-12,-10,-30,-40,2
1,-58,-13,-13,-5,-1,-17,-4,2
-28,18,-5,-11,-2,2,27,-6,2
50,21,24,36,8,2,-55,29,2
35,26,10,3,7,9,50,14,2
-70,-17,-4,-2,-5,-4,-6,-4,2
23,9,-2,-6,-3,-4,-16,8,2
30,18,1,2,3,7,13,4,2
-24,-7,19,12,6,2,7,3,2
-11,-47,-11,-8,-4,5,-7,-20,2
31,77,-3,0,0,-2,-15,7,2
-2,6,-61,-46,-26,-31,-12,-41,2
39,0,1,2,2,-1,3,11,2
64,-18,18,5,7,1,-1,20,2
-7,24,27,22,5,10,-21,5,2
-16,-29,0,9,1,4,-24,-16,2
-1,-42,-4,-7,1,6,19,11,2
74,15,-12,-6,-2,-2,-3,-5,2
-128,-61,-23,-13,-5,-5,-18,-33,2
42,60,22,11,4,9,42,12,2
10,-6,3,0,1,18,-6,7,2
3,-3,-4,-2,-1,-6,-13,-3,2
64,26,19,15,3,-7,67,27,2
-12,-40,-9,-23,-2,-22,-70,-8,2
81,-60,-12,16,1,5,21,-21,2
-36,-32,-6,-12,-5,0,70,-16,2
10,-41,-3,11,3,3,-73,-25,2
108,108,50,9,10,22,46,49,2
-34,-20,-40,-26,-13,-18,-20,-19,2
1,19,-6,-2,-4,-2,-21,-5,2
-6,-7,4,3,2,-7,29,5,2
104,83,36,26,13,11,70,50,2
-84,-77,-19,-14,-13,-6,-62,-79,2
61,47,7,3,0,-7,15,13,2
14,-11,-10,-15,-10,-2,27,12,2
13,-1,-2,12,7,3,-18,-9,2
15,17,32,13,11,16,-13,28,2
-29,17,-26,-18,-16,-16,18,-4,2
20,-46,-12,-7,-3,-17,-52,-12,2
-73,-65,-14,-4,-3,0,-10,2,2
103,15,42,38,16,12,25,64,2
-115,82,-15,-18,-14,-10,-45,-77,2
74,-81,-24,-16,-5,5,19,3,2
37,-45,0,-6,-4,-4,-30,-12,2
19,57,6,13,8,4,42,41,2
69,-65,17,10,4,11,76,21,2
-50,44,1,-41,-9,6,-69,-16,2
-96,-85,-31,16,-4,-13,-12,-22,2
21,42,6,-7,0,-11,31,11,2
24,20,8,10,4,2,-32,6,2
-32,6,-5,-2,-1,2,30,-14,2
23,-13,7,-2,3,11,15,23,2
14,69,7,1,-3,-2,7,2,2
-39,-61,-17,-18,-4,-11,-50,-12,2
-54,-29,1,9,1,8,41,12,2
4,7,-2,3,-5,0,-23,-15,2
68,49,22,13,7,1,18,25,2
-83,-51,-20,-6,-6,-2,-18,-35,2
-14,69,-19,-12,-13,-9,-1,2,2
-15,-17,-10,-5,-6,-8,-1,-29,2
-26,-20,-13,-34,-4,-3,-17,-10,2
56,27,30,34,13,10,4,34,2
39,12,5,11,5,0,13,2,2
-17,3,2,-21,-5,-4,-12,-8,2
-37,-22,-10,-7,-4,-3,-9,-7,2
37,9,6,17,3,3,-3,13,2
-8,-6,-2,4,2,-2,16,-9,2
1,16,0,-13,2,5,3,4,2
-8,-7,-1,2,-2,-3,-10,-13,2
13,-18,8,0,2,1,7,10,2
15,24,-16,-5,-2,-7,-6,-15,2
-24,-11,-4,5,-1,3,-4,0,2
-18,18,2,-5,-5,-5,-7,-11,2
4,-10,5,-7,2,0,-3,9,2
13,7,15,22,5,6,9,3,2
21,-22,-8,-3,0,0,-1,-2,2
-19,-5,-17,-6,-3,-4,0,-2,2
4,7,5,7,-3,0,-5,3,2
7,-7,12,10,8,6,9,4,2
3,7,-5,0,-3,-1,0,0,2
15,-12,13,11,1,1,1,4,2
58,8,-3,-9,2,4,3,25,2
-27,-30,-37,-42,-14,-10,-10,-22,2
14,11,12,36,4,-1,-5,-6,2
-29,-29,-10,-22,3,1,-4,-11,2
21,-15,6,11,2,5,2,3,2
12,4,21,18,6,3,9,8,2
-3,13,-5,-13,-2,0,1,-2,2
3,-3,-3,7,-1,-1,-5,-2,2
-23,4,-7,-17,-5,-4,-5,-12,2
-3,-8,-2,3,0,1,4,2,2
1,6,-1,-5,-4,-2,-4,-2,2
-4,9,0,6,-1,0,-3,-1,2
-8,8,-7,-7,-2,-2,-5,-4,2
6,-3,9,14,3,2,4,5,2
10,-6,-2,-6,-1,-2,-1,-1,2
-16,-1,0,-4,-1,-2,-1,-6,2
-5,1,-2,0,1,0,-2,-2,2
10,-2,9,9,0,1,4,3,2
3,10,-7,-9,-1,0,1,-1,2
-9,2,-6,-1,-5,-5,-4,-5,2
-13,-6,-4,-4,-1,-2,-3,-9,2
2,-2,-3,-17,0,1,3,3,2
0,7,-2,1,-3,-2,-2,0,0
-7,1,13,21,3,1,-1,-1,0
1,-7,1,5,-1,-1,0,-1,0
4,-2,-8,-4,1,0,-1,1,0
-2,-1,1,-6,0,1,0,-2,0
0,10,-3,-8,-2,-1,-1,0,0
-5,-7,-5,-6,-5,-2,-5,-3,0
7,-2,2,11,3,0,0,2,0
2,13,6,-2,0,0,-1,-3,0
-5,-9,-10,-3,-2,-5,-2,-5,0
-1,12,2,0,4,2,4,6,0
3,0,-3,-8,-5,-4,-3,1,0
5,-1,0,1,3,1,-1,1,0
2,3,1,-7,1,9,2,0,0
0,3,1,2,0,-3,3,-5,0
-5,-6,2,3,-2,-9,-19,2,0
-2,-1,-2,-4,-4,-2,1,0,0
-4,-3,-6,-10,-3,-4,4,0,0
-4,-2,-1,15,0,2,-14,-4,0
5,8,7,5,4,5,3,-1,0
0,6,0,-3,-3,-5,-4,-3,0
-8,-19,-9,-3,1,9,-4,-6,0
8,2,-7,-12,-1,-4,24,4,0
-10,-2,10,18,-4,-5,22,3,0
2,2,7,20,1,1,-44,-3,0
3,-2,-4,0,0,-5,-5,2,0
2,2,-5,-11,-1,4,2,2,0
9,-2,-10,-14,-2,1,-2,1,0
-13,-4,5,-3,1,3,18,-2,0
1,6,2,10,-2,-2,5,0,0
-7,-4,-6,-6,-3,2,-5,-3,0
-3,-1,-3,-8,-3,-4,0,1,0
9,-2,-1,1,-3,-1,1,2,0
-1,-2,-2,-2,0,-2,-2,1,0
0,0,1,2,-2,-7,-9,-1,0
-7,-8,-1,-4,-1,9,5,-3,0
-1,-2,0,3,0,-1,20,-2,0
-1,-4,-5,-8,-3,-2,-9,-3,0
0,1,-8,3,-2,1,-8,3,0
-1,0,13,12,0,-2,-8,-1,0
0,3,1,-7,-1,-3,-3,-1,0
5,5,-4,-5,-6,1,14,-2,0
-16,-8,4,0,0,-2,-8,-5,0
-7,0,-7,14,2,-5,-9,0,0
13,-5,0,-3,0,4,17,-2,0
7,6,4,1,1,10,27,6,0
2,-7,-2,0,-4,-16,-25,-6,0
2,-4,-4,-10,-2,-2,-13,1,0
-4,3,-4,-9,0,-1,-9,4,0
-8,-1,1,13,0,2,3,-1,0
-8,1,3,-2,0,-6,5,-3,0
-3,2,1,-4,0,1,5,-1,0
0,3,-2,2,-2,-2,-14,1,0
6,-1,1,-2,-2,-6,-14,-1,0
11,3,2,5,1,13,12,1,0
-14,-12,-8,-13,-4,-13,12,-9,0
-3,-2,-10,-18,-2,-3,5,1,0
-3,3,7,13,0,-4,-4,2,0
-4,4,7,5,1,2,-3,-1,0
12,1,3,-6,1,5,-9,0,0
19,1,1,8,-1,-1,0,2,0
-50,-6,-5,-3,0,-3,-5,-2,0
2,-1,-5,-19,-4,0,3,-2,0
-6,0,-1,2,-3,1,-4,-3,0
-2,-5,2,10,2,-2,1,0,0
15,3,1,-5,2,1,0,1,0
0,0,-2,3,-3,-2,-8,0,0
2,3,0,-12,-2,5,2,-2,0
-2,-3,-4,-5,0,7,34,5,0
-1,-2,-3,0,-5,-13,-17,-3,0
4,0,6,-1,2,3,-8,0,0
6,-2,-8,2,1,-2,-10,-1,0
-3,6,8,4,-1,-3,-7,-3,0
5,4,1,-2,0,1,-15,0,0
1,0,-11,-13,-3,-3,23,4,0
-9,-6,9,22,0,-1,0,0,0
-6,-2,-6,7,1,2,-8,-5,0
-3,-2,3,5,2,3,-1,-3,0
5,1,-1,-5,-2,-7,-4,-1,0
11,5,-2,-7,1,2,7,5,0
-9,-2,1,-2,0,5,13,-4,0
10,4,0,-6,0,-9,-11,2,0
-9,-2,-2,9,-1,2,-17,-6,0
-7,-10,-5,-3,1,0,11,0,0
-4,-2,-2,-17,-4,-5,-8,-1,0
10,-1,-2,3,1,4,-3,0,0
5,3,8,5,3,2,6,1,0
2,2,-2,-6,-3,-2,-4,1,0
0,-3,-5,-2,0,0,2,1,0
7,-2,-3,-3,-3,1,2,1,0
0,1,6,10,1,-10,-7,-1,0
0,2,-2,-6,-1,10,46,0,0
-5,-18,-7,0,-3,-7,-4,3,0
-20,-5,-6,-8,-2,-3,1,-7,0
9,0,0,0,-2,2,-4,0,0
5,5,3,-13,-1,-2,-5,-1,0
10,5,-2,-10,0,-3,-6,-1,0
-1,-5,-2,9,-4,-3,-2,-4,0
-5,-2,-2,5,1,3,5,-3,0
8,3,-2,-5,0,-2,-1,-1,0
-10,-1,-3,-14,-6,0,-5,-5,0
-2,-6,-3,14,1,-2,-31,-1,0
4,3,6,7,4,3,12,3,0
-19,-1,-2,0,0,-1,-14,-2,0
-6,-1,-5,-15,-3,-4,1,0,0
4,4,1,3,-3,2,18,1,0
9,1,1,-5,-1,0,-1,2,0
8,2,2,7,2,-3,-7,2,0
0,6,7,9,0,4,-6,2,0
-4,-8,-7,-12,0,0,20,-4,0
-5,-3,-7,-8,-4,-2,-8,-2,0
-4,-5,0,3,-1,-1,7,0,0
-2,-1,2,6,2,-1,-5,0,0
7,-1,0,-12,-2,-2,-3,4,0
-10,17,1,7,-1,-3,1,-2,0
9,4,-2,-14,-2,-1,-5,-5,0
-10,-30,-11,14,-1,-1,-10,-4,0
9,2,0,-5,1,2,6,1,0
-22,-7,0,-11,-2,1,31,-1,0
5,13,8,-2,-2,-2,-27,1,0
-10,8,3,22,3,3,4,3,0
-4,-7,-2,-5,0,-7,-6,-5,0
2,-7,-10,-27,-2,1,-1,-1,0
2,-1,0,13,-1,-3,14,-1,0
6,3,4,0,1,9,6,-2,0
-7,-1,-1,-14,-1,-2,-10,0,0
8,-1,-1,19,-2,-5,-10,2,0
-4,-7,-4,1,0,0,21,3,0
1,-2,-3,-8,-3,-1,-2,-4,0
3,6,1,-3,0,4,7,1,0
0,-3,-1,-4,0,0,-12,-2,0
-6,-7,-1,2,0,-2,-9,-4,0
6,7,7,13,6,-1,-1,3,0
2,3,-3,-5,-1,-1,1,0,0
0,-5,-3,2,-2,-1,1,1,0
-3,-3,2,-4,0,2,-9,-1,0
2,5,0,-16,-4,-5,0,-1,0
-3,-4,-1,22,-1,-3,-3,-3,0
1,-8,0,3,4,3,4,0,0
2,2,-5,1,-2,2,-3,0,0
9,4,-3,-12,-3,-5,-12,-1,0
-10,1,3,-7,-2,0,12,3,0
6,4,-2,8,-2,1,-3,0,0
-11,-6,1,3,1,-1,-27,-4,0
-22,-6,-5,-9,-2,-5,10,-4,0
3,2,4,8,0,3,2,3,0
9,-2,1,1,-1,1,7,1,0
9,3,-2,-2,1,-3,-7,-2,0
-12,-5,-2,2,0,-2,2,0,0
-13,-1,-4,-8,-1,-3,-8,-4,0
-12,3,-1,-7,-2,5,9,3,0
-22,-6,-1,2,-6,-13,-8,-5,0
-4,-4,1,4,2,8,22,6,0
5,1,-1,-1,-2,-2,-18,-3,0
7,3,-2,-10,-2,-3,-11,-2,0
7,-1,-4,0,-1,2,8,2,0
13,-4,4,9,-3,-3,-6,-3,0
10,0,5,1,1,3,12,2,0
5,-1,-3,-5,-1,0,0,-1,0
9,0,-3,2,-2,-1,1,1,0
11,12,-1,7,0,1,11,-1,0
2,-15,-3,-10,0,-8,-29,-3,0
-6,-13,-1,12,0,-6,-11,-7,0
0,-2,-2,-6,2,1,11,1,0
6,3,4,3,0,-3,0,-1,0
12,6,-4,-3,-3,-1,7,-2,0
3,3,-1,-5,0,-1,12,5,0
-4,-2,0,9,1,3,-19,-2,0
9,1,4,-13,-4,1,-3,2,0
1,2,-1,6,1,-3,8,3,0
-19,-8,0,-7,-2,-2,4,-2,0
8,4,-3,6,-1,4,10,-1,0
-14,-15,-8,-2,1,-3,-13,-2,0
0,0,7,-20,-3,0,2,0,0
2,3,-1,17,1,-2,-4,1,0
-2,2,-4,-10,1,-1,0,-1,0
6,7,2,6,-1,-2,-9,1,0
-3,-4,-5,-22,-1,-2,6,1,0
-4,-1,-2,11,-3,-3,2,-1,0
-10,-5,-2,-5,-1,0,0,1,0
2,0,3,4,-1,1,-7,-1,0
-13,-5,-3,5,-1,-1,3,-3,0
-5,0,-3,-10,-3,0,-1,-3,0
-1,-3,-6,-8,-3,-6,-1,-2,0
3,-1,0,-3,-5,0,-5,-2,0
1,4,7,12,3,4,3,-3,0
2,-1,0,-5,1,-2,6,-1,0
0,2,0,3,0,2,2,-1,0
2,-2,-7,-4,-3,-5,-16,-2,0
2,2,-1,4,1,6,16,0,0
4,-6,-8,-13,-2,-3,-6,0,0
-20,-5,9,3,1,-2,-2,-4,0
-4,2,-1,9,1,0,-2,-1,0
-4,1,-4,-4,-2,-1,-7,1,0
8,3,8,-11,0,1,-5,2,0
7,2,1,20,-1,1,12,6,0
-10,1,-2,-11,-1,-3,-4,-8,0
0,-2,-4,-2,-2,1,34,0,0
9,10,1,-1,-1,2,-11,-1,0
-10,-5,2,-7,-2,-9,-21,0,0
-22,-19,-11,-31,-6,-5,-1,-5,0
5,4,7,42,1,1,-6,-1,0
-2,0,7,2,2,1,7,1,0
10,9,-4,-10,0,2,8,5,0
7,1,-1,5,0,11,-20,-2,0
-5,2,-1,-5,2,-12,-21,-4,0
-3,3,-3,4,0,2,-2,0,0
12,-18,-6,7,-1,-2,-8,-6,0
-22,-1,3,-6,0,-2,9,1,0
3,0,-2,1,-1,3,-8,-1,0
2,3,1,9,-2,0,-8,0,0
-8,6,-3,-12,-4,-1,8,0,0
15,3,1,1,0,0,7,4,0
-3,-4,1,3,-1,-3,-5,0,0
13,-2,-3,-1,1,-2,0,1,0
-29,-8,1,-3,-1,3,4,-6,0
-4,0,-3,-6,-2,-3,7,-3,0
-4,3,1,-1,-2,0,0,2,0
7,-2,-3,-2,2,-2,-20,1,0
21,2,-2,13,0,-1,1,5,0
8,7,4,9,1,-3,1,-2,0
-8,-4,2,-11,-2,-1,-1,-3,0
-17,-3,-7,-4,-2,1,5,-6,0
0,2,0,-7,-2,-3,-3,0,0
-5,-4,-4,13,-2,-3,-10,1,0
4,-2,-6,1,0,2,13,3,0
-2,-3,6,-20,-1,0,14,-4,0
2,4,3,20,2,-1,-9,3,0
4,0,-3,-4,-2,-9,2,2,0
6,0,1,-10,0,4,5,1,0
-10,-6,-4,7,-1,-1,-15,-1,0
-3,2,4,-1,2,0,6,2,0
11,0,-3,-1,1,2,-1,2,0
-1,-4,-4,-4,-2,-5,-9,-1,0
0,-2,-1,0,-2,2,10,-2,0
8,1,-4,-12,-1,0,0,-2,0
1,1,9,8,0,-2,-1,-1,0
2,10,3,8,0,3,-1,2,0
2,3,-1,-1,-1,0,1,1,0
-12,-19,-10,-19,-5,-3,-4,-6,0
-1,-4,-1,13,-2,0,2,0,0
3,4,0,-11,-2,1,2,1,0
15,8,4,10,4,-4,-8,3,0
0,5,5,22,-1,3,18,-3,0
-5,0,-2,-7,0,5,4,0,0
0,-4,-1,0,-3,-6,-15,-4,0
-11,-5,-5,-1,-2,1,45,3,0
10,4,-6,-13,-5,-8,-62,-4,0
3,-3,0,-8,0,4,14,0,0
-12,-9,-1,12,1,-2,-18,-2,0
-13,-5,-2,-5,0,3,13,-7,0
-1,2,-1,-6,-3,6,19,1,0
16,-4,-6,-1,-1,-8,-4,-2,0
-6,6,-2,-12,1,-1,1,3,0
2,-10,4,6,-2,-4,-14,-5,0
3,-1,0,7,1,2,9,1,0
-9,2,-3,-9,-2,2,-5,-5,0
-14,-7,-7,-10,-1,-1,4,0,0
2,7,2,9,0,1,-9,1,0
11,3,7,3,2,4,14,2,0
8,0,-5,-6,-4,-13,-26,0,0
-9,0,-9,-16,-4,-1,0,-3,0
-2,-3,-1,16,-2,-1,-13,0,0
4,2,3,6,3,-4,14,0,0
-7,-3,5,5,3,2,5,-4,0
14,4,-1,9,-1,0,4,2,0
-5,-1,-9,-32,-4,-3,-22,-2,0
-9,-3,-1,2,-2,-8,9,2,0
-8,0,-1,1,0,4,9,0,0
1,-8,-1,-3,0,0,-5,-1,0
-5,-3,2,5,2,1,3,2,0
1,1,-1,-2,-1,1,-8,0,0
-4,5,0,0,1,0,15,0,0
6,7,4,0,-1,-2,-9,-2,0
7,-6,3,5,0,-3,-7,0,0
-8,-7,-12,-7,-1,-2,-4,-7,0
-9,2,2,3,-2,-1,1,-1,0
-9,-17,10,10,-1,0,5,6,0
15,11,-4,-13,1,1,7,5,0
15,3,1,6,2,0,14,2,0
-9,7,-1,0,1,2,-13,1,0
-3,2,-2,0,-2,4,-4,-6,0
-3,-7,-6,-16,-2,-10,39,0,0
1,1,6,10,0,9,-16,-2,0
-1,-2,0,-3,-2,-14,-17,0,0
4,4,1,8,-1,2,-1,0,0
-2,-3,1,11,0,4,-15,-4,0
-6,-1,-5,-9,1,2,31,0,0
7,-4,-3,4,0,-3,-20,0,0
3,1,-1,-7,-2,-7,-11,0,0
-2,2,-1,-7,-3,4,6,0,0
-10,0,2,-1,0,-2,-6,-2,0
0,-1,1,-5,-1,7,0,-2,0
1,-5,-11,0,1,0,5,0,0
-2,-1,-1,-2,-2,0,-13,-4,0
4,0,8,1,-1,0,-11,1,0
11,7,-4,-1,-1,0,13,2,0
-17,-14,2,-1,-1,-1,4,-4,0
-9,-1,-4,2,0,-1,-10,2,0
-4,7,-1,0,-1,-1,-15,-3,0
1,-19,-6,-6,-2,0,9,-5,0
1,4,-3,7,-1,-1,0,-3,0
6,0,2,-4,0,-2,-5,2,0
-26,-2,2,-1,-1,-3,-3,1,0
3,8,5,12,1,1,1,1,0
7,3,2,1,3,2,-6,-5,0
4,3,0,1,-1,0,14,-1,0
10,0,-5,-7,-3,-4,-7,2,0
-6,-5,-5,0,-1,2,9,-2,0
0,-3,-2,-9,-2,-2,-2,0,0
3,3,0,-5,-1,0,-9,2,0
3,-7,-2,21,-1,2,-4,-2,0
-4,0,3,-3,-1,-1,10,1,0
-1,-2,-8,-7,-2,-2,-16,-3,0
-6,-3,7,11,-3,-3,-8,-4,0
30,12,0,-10,2,9,13,7,0
-69,-13,-2,-3,-2,-7,-14,-7,0
5,-10,-5,1,-2,-2,7,-1,0
-3,0,-5,-1,-2,-1,-8,-4,0
-6,-6,4,5,0,-5,-11,-2,0
21,8,2,-4,-1,3,7,4,0
-2,9,-2,-4,0,-1,5,2,0
-6,-5,-2,0,1,-2,-6,-1,0
10,-1,-2,-4,-3,-2,2,0,0
9,2,6,7,0,1,0,0,0
1,3,3,1,-1,-2,-8,-2,0
-8,-8,-7,3,1,7,32,-8,0
-16,-5,-8,-13,-3,-10,-10,-6,0
0,-4,-9,-21,-4,-3,-34,-5,0
0,-4,2,27,-2,0,0,-1,0
6,7,9,-3,2,5,0,-2,0
-6,-2,1,2,0,-11,1,2,0
9,-3,-1,1,0,4,26,3,0
14,3,-2,-11,-4,1,-10,1,0
0,-1,-4,0,0,-7,-13,1,0
-12,-4,-7,-7,-3,2,3,-6,0
9,-3,5,0,-1,-2,-1,0,0
-8,5,-1,-9,-1,1,5,-2,0
17,0,0,8,0,-1,-7,2,0
-8,-8,-1,-2,-1,1,-4,1,0
5,4,-9,-10,-3,-1,4,-1,0
-3,2,6,12,0,2,9,-1,0
-10,0,4,2,0,-1,-4,2,0
10,7,-3,-3,0,1,-4,3,0
0,-2,-2,-4,-2,-1,-13,1,0
-3,-3,1,-3,-2,-3,15,-2,0
-3,1,0,-3,-3,-4,-6,0,0
-11,-3,-2,-1,-1,-1,0,-4,0
5,1,-5,-6,-2,-1,4,0,0
2,-5,4,-16,0,-2,-8,1,0
3,2,-1,1,1,2,8,2,0
18,3,1,14,0,0,6,0,0
-36,-6,-1,9,2,-2,8,-6,0
4,1,-5,-13,-1,-2,-25,-6,0
1,2,3,-3,-1,3,-4,1,0
6,3,3,-6,-2,2,6,2,0
0,-8,3,5,3,2,3,1,0
-5,-4,-6,5,-2,-1,6,-3,0
-6,-2,-5,-13,-5,-3,0,-1,0
-8,-3,0,6,-1,-1,-1,-2,0
14,5,3,7,-1,-2,-4,0,0
-1,4,1,1,1,1,6,4,0
5,-4,-10,1,-2,-2,5,-2,0
-2,-2,6,-20,-3,4,-1,-1,0
-1,9,6,15,-2,-8,-13,0,0
-3,-9,-1,5,2,0,1,1,0
0,-4,-6,0,0,-3,1,-2,0
1,-6,3,-3,1,2,9,-2,0
-6,0,-4,-5,0,10,21,1,0
5,9,2,-4,-2,-5,-4,1,0
-7,-3,-4,7,-1,-2,-4,-2,0
-3,-5,-6,-7,-1,-4,-4,-3,0
10,2,2,5,2,2,2,-4,0
8,2,1,-8,0,2,7,3,0
-17,-2,1,7,-1,2,-2,-1,0
-5,-6,-3,-1,-2,-1,-1,-2,0
-3,0,-5,-4,-4,0,-5,0,0
-8,-2,-4,-16,-2,-1,0,-1,0
-4,-18,0,7,3,-4,3,-8,0
-24,5,1,8,1,0,-6,0,0
11,-4,-4,-8,-2,-3,0,0,0
10,3,-1,8,0,0,1,0,0
-9,1,3,-9,-4,0,-6,1,0
10,6,-4,-1,-3,1,3,1,0
-1,-9,5,2,-1,2,0,2,0
-2,-1,-2,-13,-1,-2,2,1,0
4,3,5,16,1,1,-2,-2,0
5,3,-1,-4,2,-4,-9,0,0
12,4,-6,-7,-5,1,0,-3,0
-14,-2,1,2,0,4,4,0,0
11,4,4,-6,2,4,15,3,0
8,3,0,2,-4,-12,-12,1,0
-20,-8,-2,-7,3,8,6,-2,0
2,-6,-3,14,0,-19,-43,-5,0
0,2,-5,-5,-2,-6,4,-1,0
19,-8,-4,-3,-2,4,9,2,0
-4,10,7,-4,2,0,6,3,0
-12,-2,6,14,1,11,35,-5,0
-8,-15,-6,-7,0,-11,-43,-2,0
1,0,-2,-1,-2,-1,-2,1,0
7,1,-2,-2,-1,-2,-11,-1,0
1,9,-6,-9,-4,4,17,4,0
7,11,8,-1,-1,0,3,-1,0
8,-3,3,4,0,6,6,1,0
-24,3,0,7,1,-3,-5,-1,0
7,-4,-1,-10,-1,-2,-3,0,0
8,2,-4,15,1,0,4,1,0
-16,-7,0,-1,2,-1,-10,-6,0
12,-3,-6,-6,-2,-3,0,2,0
-6,-3,-2,2,-1,-1,-2,0,0
2,-1,0,-6,0,4,1,0,0
-9,1,2,-3,-1,1,6,-1,0
3,-4,-2,6,-2,-6,-9,-7,0
9,-5,-2,1,1,3,2,-1,0
-15,-1,-5,-12,-7,-2,-3,-1,0
3,5,2,2,2,1,5,0,0
7,-4,-2,0,2,-1,-7,4,0
-5,-1,5,18,-1,-2,2,-1,0
6,2,1,5,2,7,1,2,0
-6,0,-4,-3,-1,3,-3,-4,0
-2,0,-3,-4,-3,-7,-10,0,0
9,0,1,-12,0,0,4,2,0
0,3,10,17,2,-5,7,2,0
-7,-2,-6,2,-1,-1,-20,-2,0
7,1,-1,-5,1,6,6,-2,0
-13,-8,-3,-4,-2,-2,-11,-2,0
-3,-1,-7,-4,-4,2,8,-1,0
4,7,3,6,1,4,9,0,0
18,8,4,0,0,-7,-4,3,0
-2,-12,-4,-4,-2,2,-6,0,0
-9,-8,-5,-7,1,-3,6,1,0
6,-4,-1,-3,-1,-2,-5,1,0
3,9,1,0,0,7,21,-3,0
-11,5,5,11,1,-1,5,-1,0
4,-4,-2,-10,1,0,-17,-4,0
1,-2,-7,-8,-5,-3,6,-1,0
-5,-3,-3,8,1,4,11,2,0
13,7,2,0,-1,-1,-14,-1,0
-5,-3,4,-2,0,0,-1,-3,0
-9,-4,-2,-4,-1,-4,-5,1,0
-4,-3,-5,-2,-1,6,27,-3,0
-3,-2,-3,-6,0,-7,-12,0,0
7,1,-1,5,-2,-7,-28,1,0
-7,1,4,7,2,4,9,1,0
-3,-8,1,-1,-1,-4,-11,2,0
17,3,-4,4,2,3,6,-2,0
-26,0,-5,-28,-1,6,16,3,0
3,4,2,3,-1,-12,-13,-3,0
-13,-13,-3,9,0,0,-6,0,0
14,-5,2,-3,0,0,4,2,0
14,10,-1,0,0,0,0,0,0
5,-2,-4,-1,-1,3,8,-1,0
-35,-5,-4,-11,-1,-3,-13,-3,0
-2,1,0,4,-1,-1,-6,1,0
7,1,7,7,-1,-2,4,0,0
0,2,0,-1,0,-2,-3,-2,0
12,0,-1,-8,-1,-1,-4,-2,0
-11,-3,-6,1,-2,-2,6,-4,0
-3,-4,-5,0,-2,0,6,-2,0
-4,-4,3,5,2,-1,12,-2,0
15,1,0,-7,0,-3,-10,0,0
-14,-1,-1,12,2,1,-2,-2,0
10,5,1,-5,-1,0,1,0,0
-17,-12,-3,-8,-3,-1,4,1,0
2,-5,-2,10,-3,-3,-7,-4,0
24,16,-1,-7,-3,0,5,3,0
-13,-14,-7,-2,2,10,34,-4,0
1,-2,3,6,-1,-15,-38,-3,0
7,8,6,-3,1,-2,-1,4,0
-9,-1,-4,-4,-2,3,13,-2,0
-3,2,-5,-10,-4,-11,-29,-4,0
1,2,2,3,-1,7,8,1,0
4,-4,2,2,-1,-2,-5,-1,0
5,1,-2,-7,-3,-4,-1,-1,0
6,4,-4,4,0,3,-1,1,0
-27,-18,-5,-9,-2,4,-8,-6,0
-2,1,0,3,-3,-6,6,2,0
-6,-4,2,0,1,2,27,4,0
-1,2,2,-16,-3,-2,-27,-3,0
11,10,-1,21,2,-2,-17,1,0
9,-2,-3,-7,-1,2,4,-2,0
-9,-5,2,-8,-3,0,-7,-5,0
12,3,1,4,1,-4,7,2,0
-20,-2,-5,-7,-2,0,13,-1,0
8,1,0,-12,-1,2,-2,-2,0
-8,-4,-1,8,-1,-2,-2,1,0
-7,-3,0,1,0,0,-2,-1,0
11,-2,-5,-4,-1,2,4,-2,0
-3,0,5,6,-1,-2,0,-2,0
1,-1,-5,-9,-1,-5,-16,-2,0
0,1,2,4,-2,0,12,0,0
7,1,-6,-8,1,1,6,1,0
-7,0,0,3,0,9,3,-5,0
0,-1,4,1,-2,-17,-15,-4,0
-4,0,-1,6,1,-2,-21,-1,0
5,-8,-4,-10,-1,-1,18,1,0
-4,-5,-5,-2,-2,-2,-9,-4,0
-8,-1,-2,-3,-4,7,0,1,0
7,3,3,3,1,3,16,6,0
2,7,8,6,2,-1,16,1,0
1,1,0,4,-2,-1,-26,-4,0
8,-3,-1,-11,0,0,-2,2,0
-25,-1,-6,-1,-5,-6,-5,-4,0
3,-2,-4,12,-1,2,-3,-3,0
-6,-2,1,2,2,-3,9,1,0
10,3,-3,2,2,0,-2,0,0
13,-1,9,4,0,1,2,3,0
0,4,0,-35,-3,0,3,5,0
-4,-1,-1,32,1,-1,-2,-3,0
8,1,2,3,2,7,6,1,0
-17,-9,-4,-6,0,1,1,-5,0
-4,-2,-3,-3,-1,-10,-8,0,0
-2,-2,-7,-16,-3,-5,-2,-3,0
0,3,1,6,0,1,-19,-2,0
1,1,-1,-2,-3,4,9,-3,0
3,1,2,0,1,2,-2,0,0
0,2,-2,1,1,-1,6,2,0
3,2,4,7,1,3,13,1,0
22,-2,-2,-6,-1,2,-19,0,0
-28,-9,-2,7,-3,-6,-16,-7,0
-2,-5,3,1,3,-1,11,4,0
-2,1,-7,-10,-3,-1,-2,-3,0
4,0,-5,7,0,-5,3,0,0
18,6,1,6,0,2,-1,2,0
5,4,7,1,-3,2,-1,3,0
-14,-6,-1,-21,-1,0,2,-2,0
9,3,-5,5,-1,-1,2,-1,0
-2,0,0,10,-2,2,-3,-4,0
2,1,0,-10,-4,-5,-10,-1,0
-2,-4,-1,12,2,3,16,2,0
-26,-8,-4,-3,-1,-3,-3,-7,0
3,2,3,-1,3,2,0,-1,0
-1,-3,-6,-5,-3,-2,-5,-2,0
-2,-2,-1,-3,-2,0,-7,1,0
-4,-4,-6,-5,-2,-7,6,-1,0
-2,-2,-7,2,-1,1,4,-2,0
13,8,12,3,-1,-1,12,1,0
11,2,-5,4,3,4,2,2,0
-39,-9,-1,5,-1,-2,-4,-5,0
7,4,5,-23,-2,-2,-5,1,0
-6,-9,-9,9,-2,-3,13,-4,0
8,-6,-3,2,-2,-1,-11,-4,0
15,5,2,-6,0,-1,0,4,0
2,2,-4,0,-2,-2,-8,2,0
0,3,-1,-4,0,3,-5,-2,0
-9,-3,3,7,0,-3,3,-1,0
7,-2,1,0,2,5,-5,2,0
-5,-2,-7,-36,-2,-7,7,-1,0
-2,-2,3,31,0,-3,-2,-2,0
-4,-1,2,1,1,4,-8,0,0
5,2,3,-7,-1,0,2,1,0
-20,-3,-6,-10,-4,0,-3,0,0
-3,-3,-7,-6,-1,-4,-3,-1,0
-2,-1,4,2,1,-2,4,-5,0
18,4,0,6,0,2,1,1,0
10,3,5,11,0,1,-4,2,0
2,-3,-7,-13,-1,3,0,0,0
-16,-10,-7,2,-2,-1,14,-1,0
3,-4,0,-8,1,-2,-1,1,0
-17,-4,5,9,-2,-2,-4,-3,0
-4,0,-4,-11,-1,2,-3,1,0
1,1,-1,-3,-3,-4,-7,-1,0
1,3,-1,9,0,-2,-1,2,0
5,2,0,-4,2,0,3,1,0
18,11,5,1,2,2,9,2,0
-4,-9,-2,-3,-4,1,-17,-4,0
-20,-6,-1,0,2,2,4,2,0
12,7,3,13,0,-11,-13,2,0
-3,2,-4,-26,-5,-4,-9,0,0
15,1,0,8,2,-4,8,0,0
-5,-4,1,3,-1,3,6,-3,0
5,-8,-1,-1,2,11,9,1,0
-16,-1,-8,-10,-3,-14,-5,0,0
3,6,6,4,-1,-3,2,3,0
6,1,6,8,2,-2,-17,-2,0
6,-2,-5,1,-1,6,16,-1,0
2,-6,-8,1,-2,-3,6,0,0
-24,1,5,6,0,5,19,-2,0
6,4,0,-7,-2,-9,-14,0,0
-7,-6,-3,5,1,1,-9,-1,0
7,1,4,2,1,4,-2,0,0
3,0,-12,-18,-5,-3,-9,-4,0
3,-2,2,-5,-2,1,12,0,0
-10,1,7,19,2,-1,2,-2,0
-5,1,-4,-6,-1,3,-10,-1,0
3,-5,2,10,-1,-4,15,-2,0
3,-2,-2,-8,-1,2,-5,-1,0
0,-3,-2,-3,-3,-1,-6,-1,0
-3,-5,-1,9,3,1,2,-1,0
-9,6,0,-4,-2,-4,5,2,0
-13,-6,-2,-10,-4,-3,-4,0,0
-2,-3,-3,12,1,2,9,-1,0
-14,5,0,-13,-2,1,-9,-4,0
18,5,-1,3,2,-2,-6,2,0
-5,-1,-7,1,-1,-1,4,-2,0
-4,-2,8,0,-2,-1,2,-1,0
-5,-10,-3,-7,-1,0,2,0,0
-1,-1,-1,11,0,2,-14,-2,0
14,3,4,9,0,-8,5,2,0
8,-2,-7,-9,-4,6,24,1,0
-6,-1,2,0,-1,-8,-14,0,0
5,5,3,-6,0,12,-6,-2,0
2,2,-2,4,-2,-9,-20,-1,0
1,2,-3,-5,-3,-5,-8,-4,0
-2,-3,-3,-14,1,4,2,1,0
0,2,3,5,2,5,28,3,0
8,-1,1,10,2,-4,-2,-2,0
-15,-7,-9,-11,-3,5,19,2,0
5,-4,0,2,-2,-7,-51,-8,0
7,-2,-2,-1,-4,-7,-15,-1,0
-22,-3,-3,-8,-1,6,10,-3,0
6,9,8,12,2,-4,0,2,0
-1,-8,-5,4,0,4,18,0,0
2,-1,-5,-6,-1,-3,-9,0,0
6,-4,-3,-3,-2,1,8,1,0
10,7,2,-2,-1,-3,-19,0,0
-4,-2,2,2,-2,-2,12,-1,0
-3,-2,-2,-3,0,1,-13,-2,0
-9,3,-6,-5,-2,1,15,0,0
-6,-3,-1,-3,-1,0,-17,-3,0
6,4,5,-13,-2,-2,17,3,0
-4,-3,-1,8,0,-6,-2,-1,0
-1,-2,-1,1,0,2,-8,-3,0
10,-2,-3,-1,0,0,-1,1,0
4,-3,-3,8,-4,3,11,2,0
-15,-6,3,-6,-3,-12,-10,-6,0
-12,-1,-1,5,3,2,5,-3,0
-9,-4,-4,-1,-1,-4,-8,-2,0
7,8,4,14,4,5,11,1,0
2,-1,-3,-16,-5,-1,-13,-3,0
14,2,4,14,2,1,-3,1,0
5,2,-2,-11,-1,-4,-2,0,0
-14,2,-5,-10,-2,0,-1,1,0
-13,-13,-3,6,0,-2,-2,-8,0
-5,-7,-2,-13,-4,0,-4,-4,0
7,5,2,9,1,0,14,1,0
6,1,-1,-3,0,0,-27,0,0
-5,2,-3,1,0,3,-3,0,0
9,3,1,-4,-1,0,14,5,0
-8,-8,-2,-5,-3,-3,-1,-1,0
11,8,3,10,1,-1,17,-1,0
-10,3,-6,-6,2,0,0,2,0
-2,-10,-1,3,-1,-2,-8,-4,0
-10,-4,-3,10,-2,-2,-1,0,0
2,0,8,-10,-2,-2,-4,-3,0
15,5,-4,2,3,0,4,3,0
4,4,-1,-6,1,0,1,4,0
-2,-1,3,7,1,0,-5,1,0
8,-1,-11,-7,-3,0,7,0,0
-7,-5,1,-14,-3,2,-7,-5,0
-3,-2,-1,22,-2,1,-5,-2,0
3,-2,0,-7,-1,-7,-11,-1,0
-5,2,5,4,1,4,13,1,0
6,-1,1,-6,-1,0,-2,1,0
-5,3,-1,-8,0,-3,-3,-1,0
5,-1,-1,-2,-2,3,0,0,0
21,4,-3,10,0,-6,-19,-3,0
-26,0,-6,-11,-3,3,38,3,0
1,2,5,3,0,0,-7,-3,0
1,-1,7,4,1,-4,6,-1,0
-16,-15,-3,-2,0,2,-20,-3,0
16,0,-4,-23,0,-1,-4,2,0
-3,-1,-2,25,-3,-2,3,-1,0
3,3,2,-13,0,1,6,2,0
2,-1,-2,2,-2,-2,1,0,0
2,0,2,6,0,-2,-4,-1,0
5,2,-4,-13,0,-4,-6,3,0
-12,-1,-3,-1,-1,4,0,-6,0
-13,-13,0,-16,-3,0,-8,-3,0
11,1,-3,19,0,-2,0,3,0
-9,0,2,-13,1,-1,0,1,0
-1,-4,-5,13,-3,0,0,0,0
-7,4,-1,3,4,0,4,0,0
-3,2,4,0,-1,4,32,-1,0
5,-5,-3,-8,-5,-12,-33,-5,0
16,5,-3,-6,6,10,-19,0,0
-11,-2,4,3,-3,-13,20,1,0
-6,2,-2,7,1,-3,2,-3,0
-10,-4,-3,-4,-1,3,1,-3,0
-13,-8,-6,-8,-4,-2,-6,-1,0
12,4,-5,-19,-2,1,-5,2,0
-1,-3,1,29,-1,-3,-2,1,0
-3,3,3,0,3,2,9,-1,0
4,0,1,-9,-4,-5,-9,-3,0
-7,-4,1,4,1,4,8,-3,0
2,-3,-2,-3,-2,-4,-10,-1,0
2,-2,-2,6,-1,1,3,0,0
14,1,-2,2,-1,-2,8,4,0
-2,3,4,-6,-3,-5,-15,-4,0
-13,-7,-1,-7,1,1,-20,-4,0
3,2,-3,-4,-3,0,8,-2,0
-8,2,4,13,0,1,3,-1,0
0,-3,-1,0,-1,-1,0,-1,0
5,4,-4,-8,-1,2,3,2,0
5,0,-2,-10,-1,13,31,3,0
-9,0,-3,-9,0,-16,-40,-6,0
-6,-10,0,2,-2,-13,-14,-1,0
-5,0,2,6,-1,-5,2,-2,0
-1,2,-4,-16,2,5,-8,-1,0
2,-4,1,14,-2,-1,6,0,0
-4,-1,-3,-4,-1,5,26,-1,0
-2,-1,0,2,-2,-6,-21,-4,0
12,3,-1,0,0,-3,-7,2,0
-7,1,1,-5,0,3,12,0,0
-21,-1,-2,7,1,1,-2,-5,0
6,-15,-1,-15,-3,0,24,2,0
0,2,-4,2,-4,-2,-4,-4,0
10,3,0,4,1,-2,-14,1,0
1,4,4,7,0,3,13,3,0
-4,4,0,-5,0,0,-12,-1,0
7,-1,0,4,-2,-2,9,-2,0
4,-1,-1,-5,-1,-1,7,0,0
4,-1,-6,3,1,1,-9,-1,0
-20,-11,-5,-24,-3,-2,-8,-3,0
-3,-1,4,17,2,-2,-1,0,0
-2,5,6,-1,1,-1,11,0,0
-5,-1,-2,8,-2,3,-9,-5,0
1,10,4,-7,1,-1,-8,-2,0
-6,-9,-4,5,1,-4,-2,-2,0
3,-1,3,0,-2,-1,12,-1,0
3,1,-3,1,0,0,-20,3,0
10,0,0,-3,0,7,6,5,0
-9,-4,-2,6,-3,-13,-12,-1,0
-2,-2,1,1,1,2,0,-1,0
-2,-3,-1,-1,-2,-2,3,0,0
12,4,-7,0,-1,-2,1,-2,0
-6,-1,-1,-12,-3,2,-3,-2,0
-4,0,-3,-15,-4,-3,-5,-2,0
-5,4,3,21,5,0,5,2,0
0,-3,6,5,2,3,-3,-2,0
-5,2,1,0,0,2,25,6,0
7,-5,-3,-2,-1,9,-10,-3,0
-13,0,-2,-9,-3,-14,27,6,0
15,3,-1,7,1,-4,-17,-3,0
-4,1,1,-12,-3,-1,-9,-2,0
-4,-1,-3,2,-2,-1,5,-2,0
19,-2,0,16,-1,5,-5,-3,0
-9,-2,9,15,2,-2,14,3,0
4,2,-7,-10,-1,-2,1,0,0
5,-2,0,-7,-1,1,0,1,0
13,-2,2,-3,1,3,9,0,0
-14,-3,-7,-1,-3,-7,-25,-2,0
-7,-2,-1,4,0,8,-5,-4,0
-8,-1,-3,-6,-1,-10,1,1,0
14,3,-1,-7,-1,0,-2,0,0
0,3,-1,-1,0,-2,6,0,0
11,3,5,10,4,3,-9,0,0
-24,-6,-5,2,-3,0,19,-2,0
1,-4,-1,-16,0,0,-11,0,0
2,0,-4,11,-1,-1,12,0,0
6,-2,4,1,4,0,-9,0,0
-2,1,2,4,1,-1,6,1,0
-12,-5,-7,-2,-2,0,-7,-5,0
0,-3,-8,-16,-4,1,-2,-1,0
-8,-1,-5,-12,-4,-6,-4,1,0
11,1,10,21,0,8,11,-1,0
-2,13,5,-1,-3,-16,-15,4,0
12,-4,-3,6,-2,-4,-11,0,0
-6,-9,-4,-4,2,0,-9,-2,0
7,2,0,-1,-1,1,-6,-1,0
0,-4,0,-6,1,6,11,-2,0
-7,-1,0,-4,-2,-1,9,3,0
16,0,-4,5,-3,-3,4,0,0
-20,-1,1,-11,-2,-3,-3,0,0
1,1,-2,-4,-1,6,4,-1,0
-4,2,0,0,0,-8,-21,-2,0
-3,-2,-1,1,-2,0,-8,0,0
1,-6,-5,-12,-2,0,8,-6,0
-13,-4,0,-3,-2,-12,-3,-2,0
2,-1,-3,10,0,8,9,-1,0
-5,0,10,-4,3,-3,4,0,0
2,-2,-7,2,-2,-4,0,0,0
3,-4,-9,-13,-3,6,-24,-5,0
-1,-2,5,-1,-2,-1,-5,0,0
2,3,0,-8,-5,-4,8,2,0
15,2,-4,13,4,6,3,3,0
-9,-1,1,-2,0,-3,2,-3,0
-10,-6,-2,-2,-1,0,1,0,0
2,-4,-4,-8,-1,-3,-4,-5,0
-5,-2,2,2,-1,-4,-9,-3,0
9,0,-2,4,0,3,8,4,0
11,2,0,-7,-3,-2,-4,-1,0
-34,-4,-2,3,-2,4,12,-2,0
6,-2,-4,-13,1,-3,-10,0,0
1,0,3,20,1,3,14,3,0
3,3,0,-19,-2,-7,6,1,0
9,-1,0,4,-2,-2,-5,1,0
-14,0,-3,10,2,8,-21,-1,0
-4,-2,0,-9,-4,-7,-12,-2,0
12,3,-3,2,2,1,-8,-2,0
1,3,-1,-5,-1,0,13,-1,0
-8,-2,-1,-19,-3,-4,0,1,0
4,-3,2,14,0,3,10,3,0
0,2,-6,-4,-1,3,-13,-2,0
6,2,7,-5,-1,0,1,-1,0
2,-4,3,14,-2,-6,-20,-7,0
6,8,-1,-4,1,2,6,-1,0
-9,-8,-2,-3,-1,3,10,-2,0
-17,0,-4,5,-1,0,-4,-1,0
-11,-3,-5,-5,-1,1,1,0,0
-1,-1,1,-1,-1,1,-5,-2,0
16,10,6,2,-1,-3,1,1,0
18,-1,-5,0,0,2,-3,-1,0
-24,-11,-4,-7,-2,-4,1,-4,0
-3,-6,-1,3,-3,-4,-10,1,0
-7,-7,-3,-13,0,-1,-2,-5,0
3,1,-1,15,-1,1,36,6,0
19,8,2,-10,2,-3,-23,2,0
-5,0,-3,-2,3,-1,8,-1,0
-12,0,4,8,0,1,-5,1,0
0,-3,-7,-4,-2,4,9,-2,0
0,-6,-6,-2,-5,-17,-14,0,0
-5,-2,-1,-20,-1,1,-12,1,0
12,4,5,16,-2,6,41,4,0
-5,2,2,1,1,-4,-34,-4,0
-24,0,1,5,2,4,20,3,0
19,-5,-3,-5,-3,-1,-6,-2,0
-5,-2,-2,-20,-1,1,3,-3,0
-12,-5,-2,14,0,1,-2,-2,0
0,-3,0,-5,-2,0,4,-3,0
6,-5,-8,2,-2,-3,-3,0,0
-3,-1,3,-3,2,1,3,0,0
-3,2,3,2,-2,-2,-5,-3,0
1,6,-3,-3,-2,-2,-8,2,0
0,-3,0,5,-3,1,12,2,0
-1,-6,-6,4,1,0,1,0,0
13,3,-3,-24,-3,0,4,-1,0
1,3,2,21,-2,-3,-2,0,0
-11,-2,1,7,3,1,-1,-4,0
-8,1,-4,-10,-1,-3,-14,-2,0
8,6,7,7,2,-1,18,5,0
3,2,0,-18,-5,11,23,-1,0
-8,-4,-1,8,1,-7,-21,-5,0
5,-3,-1,6,1,2,2,-1,0
1,2,-6,-3,-3,-17,-16,0,0
13,-7,4,4,0,1,9,0,0
-32,-5,-3,-13,-3,-2,-2,-7,0
4,2,-5,16,1,0,-5,1,0
-9,-2,3,-6,1,2,-9,-1,0
21,10,0,2,-2,2,5,5,0
-12,-3,-4,2,-3,3,5,-3,0
-13,-6,-1,-5,-4,-11,-8,-1,0
-7,-5,-3,0,0,1,-6,-1,0
11,2,-3,-9,2,-3,-8,0,0
13,4,6,8,0,-1,8,4,0
6,3,-2,-8,-2,0,-1,2,0
-6,-8,-4,8,-3,-2,-12,-7,0
-11,-8,-2,-1,2,0,30,-2,0
7,7,-1,-24,-3,1,-19,-2,0
1,-4,-8,9,-3,1,-7,-3,0
2,1,10,0,2,0,-4,0,0
4,4,-1,2,-1,-2,-6,-1,0
-9,2,-6,4,1,-1,12,-3,0
8,-1,-1,-1,-4,0,0,-3,0
-12,-10,-6,-12,-2,1,20,1,0
-1,-4,-8,-6,-1,4,14,-1,0
-4,-2,5,17,-2,-9,-24,-1,0
-17,1,4,-3,2,3,-17,-2,0
8,4,-2,-1,0,0,5,0,0
7,4,3,-4,-2,0,-4,-1,0
12,0,-3,1,1,4,12,3,0
10,-1,-2,-3,-2,-1,1,1,0
-25,-3,4,0,2,1,0,1,0
-3,-1,-6,-19,-3,-2,-17,-3,0
2,3,-3,9,-3,3,16,-5,0
-2,0,2,2,1,-5,-10,-1,0
11,0,1,0,0,-2,-6,1,0
-7,-4,-2,-6,0,-1,-7,-1,0
-14,-6,-2,13,-3,-5,-7,-3,0
5,-4,-4,-3,0,2,7,2,0
17,13,8,-3,1,1,0,3,0
7,4,2,19,4,0,-6,2,0
-32,-24,-10,-29,-3,2,2,-8,0
-11,-1,1,10,-3,-3,1,-3,0
-1,-3,-6,2,0,1,-5,-2,0
4,5,1,-2,-2,-1,7,-1,0
17,7,1,1,-1,-1,0,6,0
-4,-1,0,-2,-1,-3,-2,1,0
12,1,-4,3,-1,1,-5,-1,0
-19,-8,3,7,0,-4,-1,-7,0
6,3,2,0,2,1,12,4,0
-7,-2,0,4,-1,-4,-16,-4,0
5,-1,-4,-5,-1,8,4,1,0
9,0,-6,1,-5,-5,-21,1,0
-2,-2,-2,-3,-1,-1,3,0,0
3,5,1,-5,-1,1,9,-1,0
-5,-7,-5,0,-2,-6,-5,-4,0
-6,-3,3,1,3,5,-17,-3,0
9,5,6,2,1,-2,-4,6,0
-13,-4,-5,-39,-3,0,3,-4,0
6,0,-4,34,0,1,-1,0,0
-4,-2,10,-5,0,3,19,-1,0
14,4,5,14,1,-6,-19,-3,0
-7,-4,0,-1,3,2,8,1,0
7,2,-6,-11,-3,-5,-5,-6,0
-35,-5,-7,-1,-2,-2,2,-3,0
11,4,0,-10,-3,2,3,0,0
2,0,-2,7,-2,2,4,2,0
-8,-6,-4,-15,-3,-4,-7,-2,0
17,3,6,20,1,-2,-2,1,0
-4,0,-1,-8,1,3,2,-1,0
3,4,5,13,2,2,0,-1,0
5,1,2,-2,0,-9,-9,-1,0
-4,-3,-7,-11,-2,1,1,5,0
-2,-2,-4,-1,-1,-3,-7,-5,0
12,-9,-8,-15,-3,-2,6,0,0
-18,-3,-2,10,-4,-1,7,-2,0
2,1,-5,-7,1,5,1,0,0
-2,-1,5,7,3,6,-10,-2,0
6,3,8,13,2,-9,-17,-1,0
-1,1,-2,-29,-1,6,12,6,0
7,0,-4,14,-3,-6,-3,1,0
-2,-1,-4,-7,-1,7,15,2,0
-2,-1,1,9,-2,0,0,-4,0
7,-4,0,-9,0,-3,-6,-1,0
-3,2,-3,-11,-2,0,5,-5,0
4,-3,-4,-2,-3,-5,-3,-4,0
-11,-9,-1,5,-1,0,4,1,0
4,3,-1,2,1,-2,-3,-1,0
18,3,-3,-5,0,0,2,-1,0
-8,-1,-5,8,-3,-2,-1,-4,0
-14,-6,3,1,1,-1,-1,-5,0
6,2,6,8,2,5,3,3,0
-7,-4,1,-2,-3,-1,-3,1,0
-6,-5,-3,-3,1,-5,-3,-2,0
9,1,-8,-9,-4,1,7,3,0
-22,0,-6,-1,0,0,-14,-5,0
-3,-6,9,4,-1,-3,7,-1,0
6,1,5,1,1,-2,-3,2,0
14,6,-6,-17,0,2,-19,-2,0
9,3,3,11,-2,-4,3,1,0
-28,-10,-8,-9,-2,10,-5,-4,0
3,-2,-1,0,-1,-14,2,5,0
5,2,1,13,2,0,1,-2,0
-1,-7,-2,-2,-4,-6,-5,-2,0
4,6,-1,-12,-2,-2,6,-1,0
2,3,2,-1,1,13,22,1,0
-8,1,-1,2,-1,-20,-16,1,0
-7,-4,1,2,-1,3,-6,-3,0
4,-2,-5,-2,0,-4,3,-1,0
-12,-2,1,0,0,2,-7,-2,0
-3,-2,-6,-5,-1,4,8,-8,0
11,-2,6,1,1,4,6,1,0
-17,-2,-3,-4,-4,-7,-5,-3,0
2,-4,-7,-1,1,0,-15,-2,0
-7,0,4,7,2,6,16,1,0
8,5,2,1,1,-2,0,-2,0
0,1,8,6,0,1,13,2,0
-5,0,-7,-8,-5,-2,-12,-3,0
10,1,1,-5,-2,-1,14,3,0
-15,-7,-4,3,1,1,-13,3,0
16,4,0,16,1,1,3,1,0
-6,-1,1,-3,-2,1,8,1,0
-6,4,-2,-3,-1,1,-3,2,0
11,2,1,-7,-1,-1,9,3,0
9,-2,-1,2,-1,-2,0,-2,0
-5,-1,-4,0,-1,-5,4,0,0
-11,-1,2,0,-2,7,-31,-9,0
-10,-1,1,-1,0,-15,-1,-1,0
12,3,3,11,4,-1,-2,3,0
3,2,2,-9,-1,0,7,2,0
8,0,0,1,-2,0,18,2,0
-15,-1,-6,-21,-3,5,-6,-1,0
3,-5,-2,2,-2,-5,5,-1,0
6,-1,-5,2,0,-1,1,1,0
-21,-1,6,2,0,0,2,-2,0
-5,0,7,7,0,2,1,-1,0
17,-6,-3,-9,-2,0,-6,2,0
3,2,-6,-4,-6,1,1,-6,0
3,-7,-3,3,0,-2,-12,1,0
-8,-3,-8,-7,-3,-1,5,2,0
4,11,2,-3,-1,-3,-8,2,0
8,1,4,1,0,0,-8,0,0
-17,-7,-4,-2,-2,2,12,-3,0
4,2,0,-3,-2,-1,4,-2,0
-3,-9,-7,-4,0,3,-8,-3,0
6,0,10,11,5,2,15,0,0
-2,-4,0,0,2,-3,-20,0,0
14,-7,-4,2,1,1,0,-2,0
-19,1,-2,-5,-2,-2,-3,-2,0
7,0,-2,-1,-4,-1,-3,1,0
9,-1,-2,-4,-3,-3,6,1,0
-1,-2,1,9,0,3,-1,-1,0
-13,6,-4,-7,-3,-2,-8,0,0
4,-3,-3,-5,-2,-3,-1,1,0
-1,-6,-7,-6,-2,0,4,-2,0
-1,-3,3,9,-1,-1,0,-3,0
0,-1,0,-7,0,-2,2,-1,0
-5,1,1,18,0,0,-31,0,0
-6,4,6,5,2,3,32,5,0
8,6,1,1,3,1,2,3,0
-20,3,12,4,-1,-1,-1,-3,0
0,-4,-9,-9,-5,-1,-8,-2,0
0,-4,-8,-6,-4,1,-7,-1,0
-10,-2,-4,-1,-3,-2,2,-2,0
1,-1,0,-7,3,1,-4,2,0
-3,2,3,5,2,1,5,0,0
5,4,1,1,0,-2,-2,-1,0
-10,-5,-5,-3,0,-2,0,-5,0
14,-3,-5,0,-3,-2,-6,-2,0
-9,-1,2,-11,0,0,6,-2,0
17,1,0,-11,-1,-1,0,1,0
-10,8,-3,15,-1,-2,-4,1,0
5,-9,2,-2,0,0,1,-2,0
-22,-10,-13,-33,-2,-2,2,-5,0
0,1,8,31,0,-2,-4,0,0
8,3,8,-4,1,0,-1,0,0
12,7,0,4,-1,-1,1,3,0
27,5,5,-2,2,2,9,8,0
-28,-8,-10,-10,-1,-1,-8,-10,0
0,-9,-7,-10,-4,0,0,-2,3
6,-2,-5,-4,-2,-1,0,0,3
7,5,1,12,1,-1,-2,-1,3
-16,-4,-3,-6,-1,-2,-2,-3,3
-5,-1,0,4,-2,-1,-5,-2,3
-1,-1,-4,0,1,0,2,-3,3
7,-1,3,1,0,1,0,0,3
22,16,5,6,1,-1,1,5,3
-8,-7,-3,-22,-1,1,-1,-2,3
-7,-12,-11,10,-2,0,-9,-6,3
-17,-8,-4,4,-1,-9,11,-6,3
5,2,-1,-2,-1,1,-11,8,3
1,10,16,2,4,4,12,7,3
6,10,7,8,1,6,9,0,3
-8,-2,-5,14,-3,-1,1,-6,3
6,-1,-2,1,0,-7,-10,1,3
-1,-5,-8,-14,-2,4,-2,-2,3
7,-1,0,-1,-2,-9,6,4,3
-15,0,3,1,1,8,-9,-5,3
6,0,-3,-8,-2,-13,-17,-2,3
-6,-3,-6,4,-4,-3,-12,-2,3
-10,-3,5,-5,0,0,3,-4,3
2,0,-3,-1,2,1,6,3,3
9,-4,1,1,0,7,10,1,3
-10,-1,0,3,2,-3,0,-2,3
-2,8,-6,-4,-4,-3,-12,-2,3
-11,-10,-3,-6,-2,-3,-6,-3,3
2,2,1,-1,-2,0,2,3,3
5,3,4,13,4,2,8,4,3
-1,0,5,-20,1,3,1,3,3
-3,4,1,28,-1,-2,-13,-1,3
-19,-8,0,-9,-1,-2,2,-8,3
8,1,-5,6,0,2,10,2,3
-1,-6,-1,6,1,1,-2,0,3
21,8,3,-21,-2,-4,30,7,3
-35,-11,-8,8,-3,0,-25,-7,3
4,-7,-3,-14,-2,0,2,-4,3
-4,4,-3,7,1,1,-4,1,3
7,-4,2,-17,-3,-1,5,1,3
7,2,-2,5,0,0,-9,-1,3
12,13,-3,-1,-5,8,13,-2,3
-6,-9,5,-6,-16,-14,-11,1,3
-19,-2,-5,-7,12,-3,-12,-2,3
17,-1,6,7,-36,0,11,0,3
-6,-11,-10,-24,61,-4,-12,-3,3
7,2,1,39,22,8,7,3,3
8,-6,9,-5,-56,2,-3,5,3
14,5,-5,-17,-18,-2,10,0,3
-22,-1,-12,-15,65,-13,-10,-9,3
-6,0,-10,12,13,16,-1,1,3
2,0,7,9,18,-2,6,0,3
-4,-2,27,12,-48,5,10,-2,3
26,-2,-10,-18,-69,-7,0,9,3
-11,3,-2,3,4,-11,-12,-5,3
-25,-10,2,24,-8,6,-5,-7,3
16,8,1,-6,5,-2,8,6,3
16,4,14,7,-2,-2,-2,1,3
16,-2,-20,-28,-8,-1,0,-2,3
-3,16,-13,-12,-15,-4,-7,-6,3
-13,-4,5,11,40,0,3,-5,3
-29,-50,7,11,-2,0,-8,-5,3
37,12,-12,-71,-89,1,10,9,3
14,56,5,42,-3,-21,-9,-1,3
-6,-5,5,19,118,18,0,-1,3
-42,-21,-5,15,-112,8,-2,-8,3
-22,-38,2,-8,-16,-12,2,-7,3
-3,-14,-17,-31,-90,-4,-1,1,3
13,10,-19,-21,97,-11,-6,0,3
-30,3,-16,8,-27,5,3,-3,3
-8,-2,36,14,-23,-4,-1,-7,3
-7,-7,10,7,-62,-2,0,4,3
16,-2,0,-2,-61,-6,5,6,3
42,31,-8,-13,22,-6,-7,1,3
-41,-23,-22,-5,12,2,-3,-3,3
31,17,3,-10,38,6,1,5,3
6,-3,-5,2,-34,2,5,3,3
-11,-1,12,12,35,-5,-3,-3,3
16,20,18,25,32,1,0,2,3
14,-16,8,-7,28,3,0,4,3
-14,8,-4,-16,-116,-8,-3,-12,3
1,-20,-28,1,76,-5,-7,-5,3
13,8,20,8,-10,-3,4,3,3
-25,-22,1,7,127,39,-9,-13,3
-1,7,-4,-23,-50,5,-1,-7,3
15,3,-13,19,58,-3,0,1,3
47,13,14,-8,-86,-6,0,2,3
19,56,-19,-21,-99,-27,3,6,3
-38,-7,7,26,96,-23,-10,-7,3
23,15,33,38,-97,47,9,8,3
-53,-63,5,-4,-43,-27,-5,-6,3
38,7,-2,-6,-90,-4,5,9,3
18,84,-27,-28,-99,-25,-3,4,3
3,0,-1,-8,34,4,3,4,3
-11,8,22,19,75,14,-1,4,3
-1,-42,3,-6,42,-12,-1,-5,3
2,-7,12,3,20,0,2,2,3
-45,-31,-40,-40,-75,-20,-6,-5,3
6,16,-41,4,37,28,5,4,3
-18,-12,24,14,31,34,3,1,3
7,-13,16,16,8,-33,0,3,3
-10,4,5,-7,-128,-31,0,1,3
-28,-24,-36,-58,99,1,-6,-5,3
-7,-24,-6,48,-38,102,17,3,3
16,-3,-14,-6,-34,-61,-6,7,3
-2,-9,28,-4,-29,-34,-9,-7,3
-6,1,11,-3,-16,-19,-3,-2,3
-8,10,10,4,71,-15,-5,-4,3
34,-4,-1,-12,56,70,10,6,3
-12,-15,8,-20,-61,2,2,-7,3
-43,15,-92,-16,44,-29,-8,-9,3
-18,7,-39,8,81,3,-6,-10,3
1,-8,82,46,-99,61,11,5,3
-8,-6,24,10,31,27,0,-4,3
9,-24,41,5,-71,-73,-6,-2,3
-10,-14,1,-46,-92,-26,-4,3,3
6,16,-68,-29,9,-16,-5,-1,3
20,24,-42,-5,-38,6,-9,-2,3
-63,-4,32,37,56,48,-2,-16,3
-17,-11,6,1,-42,-35,-2,-1,3
41,2,15,4,52,27,12,17,3
-31,-7,-42,9,100,26,5,-3,3
24,20,25,10,-77,6,-1,1,3
2,-48,17,-10,-19,-58,-8,-3,3
-2,6,-6,-26,-24,13,-7,-11,3
26,113,-30,-23,-32,-34,-4,4,3
28,-37,-11,17,-30,12,6,7,3
-23,-19,51,34,67,37,5,-1,3
2,-61,12,-2,1,-7,4,2,3
47,38,11,-28,-15,-1,4,10,3
-39,58,-68,-29,-33,-35,-19,-23,3
23,-9,19,36,39,45,8,6,3
-24,-51,15,37,-65,-4,1,-1,3
57,-60,64,8,-42,-10,5,10,3
8,109,10,-27,11,-39,-2,1,3
-21,-93,-90,-53,87,-20,-16,-13,3
-17,-16,-15,27,69,31,-1,-4,3
-41,-88,50,24,-52,20,4,-5,3
97,75,43,23,-86,-4,2,7,3
-26,121,24,36,-58,-22,-11,-15,3
-31,-1,20,14,15,6,0,1,3
8,-39,-9,-32,46,-20,-4,0,3
1,-67,-55,-43,-3,27,-1,1,3
17,29,21,0,-11,-2,4,5,3
-7,-11,-27,-8,-28,-16,-3,-3,3
-32,4,15,19,79,-3,-1,-2,3
4,-55,-2,6,9,33,6,8,3
11,-60,-6,-21,-97,-16,7,11,3
17,101,-13,-70,-96,-57,-14,-2,3
-71,-93,-82,17,103,35,-13,-20,3
22,-97,17,44,-40,31,18,17,3
6,91,48,28,19,-5,-2,-5,3
15,12,6,-16,-59,-3,2,-1,3
-10,59,-43,-56,91,-30,-14,-3,3
-3,-14,16,48,64,39,4,-2,3
23,-44,3,22,-76,-2,9,11,3
-11,-9,36,6,9,-9,-6,-7,3
26,17,0,-12,-55,-10,1,0,3
0,1,36,25,-38,-5,2,3,3
-9,-29,-32,-42,14,-11,-7,-8,3
-4,74,-41,-4,17,-3,-3,-2,3
37,35,39,34,-4,2,5,8,3
-44,-74,-7,-13,-72,4,-3,-8,3
-4,49,-16,-13,91,4,0,-2,3
-6,-36,10,3,21,7,4,4,3
-54,87,-15,-29,-128,-26,-7,-13,3
-7,-51,-23,-39,117,9,-15,-12,3
-4,-32,-14,15,101,-14,-5,-3,3
-5,-64,17,20,-51,10,10,6,3
16,-54,-34,8,-67,15,6,3,3
-1,51,3,11,-38,-27,4,4,3
4,5,-24,-38,-80,-5,-6,-5,3
12,39,31,17,-12,8,1,2,3
49,104,64,6,-26,-15,-1,5,3
-29,-23,-18,-3,84,28,-4,-14,3
17,-17,-32,-7,-38,27,8,7,3
-10,-36,-12,-14,13,-57,-6,-5,3
17,111,33,33,-1,15,10,8,3
49,-27,25,5,-25,-22,-8,5,3
-19,17,15,10,-18,13,1,-1,3
-9,30,-17,-3,43,8,-9,-12,3
-101,-63,-9,-19,-10,-8,-3,-11,3
24,43,-3,-41,-1,-4,4,3,3
-3,17,1,32,-98,-28,3,4,3
4,-36,-12,-33,87,-33,-18,-9,3
21,-49,-37,16,-36,-26,2,4,3
-5,13,20,21,32,33,6,7,3
11,3,-12,-33,-76,0,-3,-4,3
-38,-75,-47,3,-24,-3,6,-1,3
50,59,74,10,-74,-5,2,11,3
-25,-86,-37,6,75,61,-4,-12,3
-12,-38,-27,-37,116,-27,-14,-13,3
1,18,9,39,28,46,12,6,3
0,-23,10,9,3,12,1,-1,3
7,39,-8,-4,-116,-23,1,5,3
33,59,30,7,-22,0,-1,4,3
9,65,-5,-10,-38,14,4,4,3
-48,-57,-32,-15,65,-2,-5,-12,3
10,62,-5,-6,-16,-20,-6,-6,3
-2,42,44,11,46,5,-2,-3,3
20,-11,-12,2,-1,5,4,6,3
43,23,28,9,-1,9,7,14,3
-1,26,-41,-24,-27,-26,-3,-1,3
5,23,37,31,8,18,4,2,3
-15,-49,10,34,14,54,2,-3,3
-3,-46,-16,-9,19,20,1,-4,3
-20,-24,6,0,-12,11,6,3,3
15,-17,-14,-14,-64,-41,-7,5,3
37,49,7,-12,-85,-35,-4,1,3
-75,-92,-34,6,122,26,-2,-11,3
31,108,23,-7,-114,-19,-4,-5,3
-23,16,-23,-21,107,42,2,2,3
-10,-21,-1,-9,-39,-4,-5,-7,3
51,17,-17,15,-80,2,2,7,3
-16,-12,23,24,83,17,4,1,3
9,-2,0,12,-31,0,0,-1,3
-5,27,-4,-11,6,-5,1,-2,3
-8,16,-2,-10,-13,-7,-4,-5,3
-9,-2,-13,-6,32,-11,-5,0,3
-1,-44,-12,-21,-50,-5,0,-2,3
-15,21,-10,-12,7,4,-5,-3,3
18,-4,-15,2,-93,-2,-1,-1,3
18,12,18,18,97,11,3,6,3
-12,-22,-8,-2,6,0,2,-2,3
6,-39,-2,-10,-51,0,-1,-5,3
-12,-3,-17,-23,28,-7,-6,-3,3
-29,-57,8,19,-43,-20,-1,-4,3
-2,23,5,24,-34,24,5,0,3
0,-2,-7,-5,70,-1,-3,-1,3
19,-9,30,10,4,-14,2,3,3
9,49,3,-33,-46,-10,-2,-1,3
-11,-45,-42,-9,36,-4,-6,-7,3
-7,37,25,30,-4,4,8,6,3
-4,-81,-31,-22,36,-5,-9,-10,3
-4,-17,-3,-6,-22,-7,3,4,3
-8,2,6,0,-43,1,0,-6,3
-14,-9,-20,-17,46,8,-3,-5,3
27,56,26,23,26,9,9,8,3
8,1,11,-1,-20,-35,-11,1,3
11,49,-5,-14,-90,-15,-7,-5,3
-32,-84,-14,-1,-5,-3,-3,-7,3
5,68,15,4,69,-7,1,1,3
-15,-113,-28,16,50,30,2,-1,3
-15,34,13,3,22,-8,-4,-1,3
-1,1,-6,-8,-79,-2,-1,-3,3
1,-7,8,9,68,-8,1,0,3
12,22,3,-9,-26,4,0,-2,3
1,-14,-4,-12,24,-3,0,5,3
-15,-26,-2,4,-39,2,2,-2,3
-7,3,0,-9,-32,3,-4,1,3
4,14,0,-6,-3,-17,-3,1,3
28,1,24,19,-12,0,5,6,3
-15,6,-3,1,26,-16,-5,1,3
-49,-13,-26,4,-77,13,1,-10,3
-1,8,-7,-1,114,20,3,1,3
6,6,-12,-5,-28,2,3,4,3
22,-31,17,-3,7,-6,-4,0,3
16,48,26,-6,-75,-15,2,9,3
-15,-9,-14,-10,-14,-5,-6,-10,3
-6,-34,1,25,10,35,11,6,3
14,28,-1,5,60,19,0,1,3
-12,-43,-2,-6,25,-13,-5,-6,3
15,21,-6,1,-47,3,6,5,3
17,41,18,1,1,-6,1,7,3
-24,-11,-21,-9,-15,-6,-7,-13,3
-7,-40,-14,0,-4,21,4,-1,3
8,34,14,-8,-9,7,-3,1,3
18,15,2,-2,28,-40,-6,-1,3
30,74,20,1,-66,-8,-4,2,3
-12,17,6,-7,47,-8,-9,-6,3
-17,-4,5,11,12,-10,-2,-6,3
-17,-44,-27,4,4,15,4,-2,3
2,-11,-8,-6,-8,-4,1,0,3
16,-6,-1,0,7,4,0,-2,3
-6,-6,15,-2,-75,-9,5,4,3
10,33,-4,-24,-16,-9,-5,3,3
-10,-2,-11,6,50,-21,-12,-11,3
5,20,17,17,46,19,3,1,3
-18,-40,-24,-3,-17,-2,-1,-7,3
-16,-28,-8,-3,55,35,3,-2,3
8,6,3,-12,-47,-27,2,8,3
40,27,19,7,-9,-15,-2,11,3
-10,-25,-22,-2,-30,-5,3,-11,3
-36,-17,4,13,38,32,5,-1,3
-15,-30,-2,2,36,23,-1,-7,3
11,7,-5,-2,-25,-29,-2,0,3
25,17,7,-12,-44,-6,-1,10,3
8,-12,-12,-19,12,-14,-7,-8,3
-7,6,32,39,7,30,8,5,3
-6,-3,-8,1,-4,3,-2,-7,3
-8,13,14,18,13,4,-4,-2,3
-13,-36,-9,-16,-22,-6,-4,-4,3
-8,-4,-12,-16,0,-9,-3,-1,3
9,-10,-1,-4,-9,-14,4,3,3
6,1,13,3,-24,8,4,9,3
39,73,15,11,68,29,-5,2,3
-26,-45,-29,-13,-54,-20,-2,-10,3
-11,-23,-11,10,53,7,-1,-4,3
-18,-36,-20,-7,-31,-3,2,-7,3
13,26,14,-10,-53,-25,-3,2,3
3,-53,7,3,-20,-6,2,9,3
16,60,20,8,1,8,15,3,3
-6,33,-7,1,38,-23,-27,-9,3
-4,-26,4,5,-18,5,7,1,3
-15,4,-8,-5,25,1,-3,-3,3
5,-30,-10,-7,-54,-6,1,-3,3
15,7,7,-1,28,4,3,3,3
-9,-5,-3,-5,-19,-11,-3,-3,3
5,30,13,-6,-54,4,6,3,3
-14,-26,-2,20,74,61,1,-1,3
10,28,-2,2,35,-23,1,3,3
-30,-28,-14,-4,-24,-15,-6,-4,3
53,50,32,4,10,-2,-1,12,3
-4,-46,-16,-21,-106,-42,-9,-8,3
-24,17,-12,4,101,49,4,-5,3
-10,-39,-1,2,-50,-18,3,-5,3
-11,0,-19,-4,35,13,-5,-5,3
22,17,-6,2,-7,-3,-1,9,3
8,0,9,-3,-46,0,3,2,3
-12,-5,-6,0,-66,-10,2,1,3
13,16,9,-4,14,16,2,-1,3
-22,-20,-19,-15,88,35,-7,-6,3
5,3,-9,12,-22,-33,1,6,3
-5,-37,11,20,-9,-7,-3,1,3
22,82,13,-9,-1,-31,-7,-1,3
-10,22,15,2,-74,4,1,1,3
-18,-7,-1,-24,66,-4,-3,-6,3
-7,-43,-33,5,46,65,7,-9,3
-11,-26,-7,2,-11,-50,-6,2,3
6,21,17,0,3,-17,-10,-3,3
22,33,21,11,-128,6,2,11,3
1,11,4,-7,98,-22,-8,-10,3
-12,-41,-34,11,43,45,13,-1,3
6,24,32,16,-25,-14,0,6,3
-2,-24,-1,-6,-35,-3,-1,-1,3
-3,7,-6,-19,-48,0,-5,-3,3
-1,9,-5,-8,48,14,-2,1,3
-6,-38,-1,-3,-53,-22,1,3,3
8,48,8,9,66,13,-1,-2,3
8,13,6,11,44,33,8,6,3
-19,-45,-20,-8,-16,-54,-4,-5,3
-3,9,-11,-8,-14,4,-5,-5,3
-5,-6,9,-8,-55,-9,-9,-5,3
6,-1,8,-9,3,-67,-12,-5,3
7,52,5,17,-10,35,5,1,3
-3,-15,5,-2,12,4,8,5,3
-14,-21,-33,-11,-29,-16,-1,-12,3
15,26,8,8,-36,-2,2,11,3
-17,-33,5,-4,-19,17,-3,-6,3
17,99,7,12,74,3,-3,-3,3
10,-37,-8,-10,-19,-9,-2,0,3
-17,-4,-18,-6,16,-8,-3,0,3
-4,-22,3,8,5,24,2,-2,3
9,3,-5,-7,-12,6,1,6,3
7,-19,0,0,-15,7,6,4,3
11,77,7,-21,-12,-32,-7,-5,3
-11,-49,-21,6,58,24,3,-2,3
5,33,20,11,-57,35,4,-1,3
-23,-25,-11,12,94,-2,4,2,3
16,-48,17,0,-25,-56,-6,6,3
72,111,7,-15,-43,0,1,16,3
-64,-29,-54,-9,-28,-25,-11,-21,3
-44,2,17,3,22,41,1,-11,3
-6,-24,-7,9,73,49,6,-4,3
4,2,-8,-3,10,-8,5,9,3
26,-43,10,9,-16,-10,3,8,3
20,23,3,-11,-125,-35,-5,-1,3
-8,14,3,3,65,6,-2,5,3
0,-29,5,-5,-46,-3,-3,-5,3
-21,-44,-28,-20,90,16,0,-6,3
17,22,7,12,-9,-16,-1,8,3
-4,-19,11,-4,-56,4,-1,-4,3
-10,-33,-23,-22,-10,-14,-4,-5,3
9,12,-12,-10,7,-38,-3,0,3
11,8,12,32,83,119,30,13,3
-6,-26,-14,7,-44,-61,-17,-4,3
-9,-6,21,2,-25,6,-12,-4,3
8,23,5,-7,-80,8,0,6,3
-6,-7,-30,-26,-1,-1,-15,-17,3
-12,13,3,-1,77,33,10,-3,3
-20,-19,19,9,-39,-10,6,-2,3
5,-16,-3,5,6,-14,1,3,3
6,4,4,-8,-85,-29,-1,2,3
3,11,2,-10,-81,-5,-3,-1,3
-22,-30,-8,-1,127,15,-4,-14,3
7,12,-23,12,11,21,5,10,3
4,-29,-7,-4,-55,-21,-2,-2,3
-5,5,-7,-3,-19,-15,-3,-3,3
9,32,28,12,-26,-16,3,6,3
-14,-62,-22,-33,18,11,-3,-2,3
-20,6,3,9,-94,-27,-11,-13,3
-31,-59,-16,-4,83,-21,-11,-15,3
4,13,2,3,-19,38,11,5,3
8,-7,15,9,7,-20,-3,1,3
17,18,6,7,-24,-8,3,8,3
15,58,31,-1,-70,1,6,2,3
-22,-47,-15,8,89,19,2,-2,3
-7,5,1,-8,8,8,-5,-6,3
20,25,13,6,55,-7,3,10,3
40,85,6,-3,-125,27,0,3,3
-27,-37,-41,-21,-93,-44,-7,-11,3
2,-8,22,4,107,14,-5,-3,3
-31,-71,-34,-9,-11,50,7,-6,3
5,-3,6,10,-32,-40,-2,5,3
22,37,24,6,-57,2,-3,7,3
-17,-8,-11,-15,-3,-33,-12,-12,3
6,17,-8,-8,40,-1,1,3,3
1,1,49,45,31,68,17,7,3
-8,-27,-25,-13,1,69,8,-4,3
-7,-26,-2,10,-19,-88,-21,-2,3
18,-15,39,8,-35,44,1,9,3
18,49,-25,-31,45,-11,-14,-9,3
-15,-41,-31,-10,27,43,-4,-14,3
-2,7,22,35,22,94,24,11,3
-7,-16,-11,-13,-13,-32,-7,-4,3
-4,-30,-16,-4,-54,-12,4,5,3
5,40,21,0,-39,-53,-3,-1,3
22,46,33,5,-121,-23,8,7,3
-14,-51,-46,-14,127,-45,-22,-18,3
-18,-45,-18,2,-120,52,13,6,3
-2,33,-15,-20,-27,-62,-13,-4,3
5,-15,3,15,-46,11,2,-1,3
4,51,45,16,-12,-19,-1,6,3
-2,-8,-11,-23,30,6,-3,-6,3
-7,-65,-22,3,18,-2,2,4,3
6,32,8,-8,11,-13,-4,-3,3
15,3,-2,7,-3,20,5,5,3
-29,-41,-18,-13,40,-9,-5,-9,3
10,58,36,10,-26,-2,2,7,3
-6,-23,-5,4,-35,26,2,-8,3
-7,19,-1,-8,31,23,2,-1,3
1,-15,1,3,89,4,-1,1,3
4,10,18,15,30,-24,-3,-1,3
-25,-88,-45,-10,27,25,1,-3,3
23,64,30,19,-45,-4,6,10,3
-1,34,-12,-18,0,-23,-12,-11,3
-6,-7,0,-1,8,33,4,0,3
19,36,20,6,-40,6,3,2,3
-19,-50,-4,8,88,13,4,-2,3
3,-7,0,-2,-72,-26,0,3,3
-7,-18,13,6,-15,4,-1,-2,3
7,15,6,-6,39,3,-2,3,3
13,42,-5,-14,-97,-7,-5,-4,3
1,-44,-28,2,90,-11,-1,-3,3
-28,-14,-17,2,-3,28,3,-2,3
-5,10,-1,-16,-51,-29,-2,-2,3
-3,-25,-13,-7,90,37,-4,-3,3
-3,-1,9,4,-33,22,3,4,3
21,30,23,-4,-45,-64,-6,2,3
-1,-12,-29,1,11,28,6,1,3
5,26,6,1,-21,-34,-4,-1,3
-17,-33,-11,-5,-14,-2,-5,-8,3
1,-13,6,-1,22,10,3,4,3
4,29,-7,1,24,-1,0,1,3
11,-11,-4,4,-22,7,5,3,3
-19,-5,0,5,-8,11,3,1,3
6,-7,1,2,-34,-20,-7,-9,3
-28,-29,-16,-32,-28,-13,-8,-16,3
0,-3,-2,7,40,5,0,3,3
22,28,18,13,13,24,8,8,3
0,35,-2,-12,-46,-24,-2,0,3
4,1,-2,1,92,-27,-4,1,3
-11,-41,7,10,-19,8,5,3,3
-5,-8,-5,-12,-83,-40,-10,-6,3
10,34,0,7,36,31,-1,-3,3
6,-13,-4,-5,-54,-5,-2,1,3
4,53,-1,-3,-21,-19,-2,-3,3
-6,-55,16,5,-4,18,0,2,3
1,-25,-35,-10,4,-27,1,3,3
4,12,11,12,9,8,5,1,3
8,-6,19,2,-14,-13,-2,-1,3
2,27,-3,15,-49,23,5,6,3
-20,-18,13,4,102,22,-1,-5,3
6,19,31,10,-38,19,9,6,3
-8,-46,-32,-23,-26,23,-3,-6,3
10,10,-18,-5,-91,-94,-6,4,3
17,13,17,14,91,32,-1,5,3
-7,24,6,0,-33,-12,-6,-5,3
-17,19,-3,-18,-46,-1,-3,-6,3
-3,-42,-13,11,-22,17,2,-2,3
0,-12,12,-3,-53,-22,2,3,3
24,52,10,2,-17,0,2,5,3
-16,-46,-32,-11,70,5,-7,-8,3
-6,39,2,-12,26,19,0,-2,3
2,-15,-13,-2,-18,-26,-1,0,3
1,5,11,13,10,21,3,3,3
23,21,3,1,-21,-25,0,2,3
6,31,4,-5,-50,18,3,2,3
-25,-23,-6,-3,57,28,-3,-10,3
7,17,7,13,40,13,5,7,3
-3,0,-4,0,-27,-5,0,-4,3
5,4,13,0,-21,-22,-3,-1,3
5,-17,-3,-13,28,-6,-2,1,3
-6,-5,-19,-15,-28,-18,-5,-4,3
1,14,20,20,6,-9,0,0,3
-1,37,-3,-4,2,19,2,0,3
-2,21,10,13,-23,10,2,0,3
-7,-41,-21,-18,53,0,-9,-8,3
-4,-6,-6,-1,-6,9,4,1,3
2,-19,5,1,14,20,5,0,3
14,32,4,1,-51,-35,-2,4,3
-7,2,18,2,8,11,-5,-2,3
-2,-4,-3,-2,-50,-17,-5,-3,3
-2,-36,-14,3,24,14,1,-1,3
-8,13,11,9,53,-13,1,1,3
-9,-19,2,-11,-37,2,-6,-12,3
-7,22,-6,-8,-2,-11,-3,-5,3
9,10,14,5,-3,5,0,0,3
9,1,0,-6,-49,-2,-3,-1,3
-13,-59,-3,-8,-86,-33,-3,0,3
1,37,-3,1,114,18,-2,-1,3
-7,-19,-14,0,63,3,-2,-4,3
2,23,0,-2,-83,7,2,0,3
-7,-8,3,-1,-28,-20,-5,-5,3
-6,-26,6,-3,82,8,2,2,3
26,51,20,3,19,0,0,1,3
-5,-9,-35,-3,-21,45,1,-3,3
7,-3,-6,5,32,-3,1,5,3
5,-13,2,-4,-74,-30,-5,2,3
-20,-16,8,5,17,-10,-1,-3,3
6,-4,-4,-5,5,11,0,-2,3
0,16,-6,-2,-2,13,0,-3,3
18,24,25,-2,-54,0,7,7,3
-29,-44,-24,-12,-16,-15,-8,-11,3
5,-6,-2,24,69,37,4,1,3
-6,-18,-8,2,40,1,3,2,3
-1,-10,19,1,-24,10,1,2,3
19,54,15,-8,25,-15,-2,4,3
11,28,-17,-18,-43,-9,-5,-2,3
-12,-26,-19,3,18,-10,-1,-5,3
3,6,11,12,-12,2,4,6,3
-5,-22,19,15,35,29,3,1,3
2,22,-9,0,-59,-52,-1,4,3
2,24,-4,-8,3,5,-3,-4,3
-18,-27,-28,-16,50,-1,-2,-4,3
0,-13,-1,5,-37,13,4,3,3
16,17,20,0,32,-11,-1,1,3
3,8,7,-6,-67,4,-2,-1,3
-23,-14,2,-2,-48,-32,-4,-7,3
7,56,-25,-5,111,32,-6,-6,3
-20,-105,-3,16,-4,19,8,7,3
7,-7,3,-2,-8,2,-4,-7,3
0,-16,1,-1,-32,-6,-1,-1,3
-2,4,1,-14,-16,-1,2,1,3
6,9,3,-7,-20,-6,0,2,3
3,0,-9,9,24,-3,-1,6,3
-5,1,-7,13,-18,7,0,-2,3
-2,-23,2,5,31,-8,0,2,3
2,17,5,-12,-39,24,0,-2,3
-10,1,7,-12,24,8,-1,-1,3
8,30,-19,-9,49,-25,-7,-6,3
-10,-21,-5,9,-51,-3,5,1,3
3,-10,16,3,-88,-15,1,0,3
-5,0,-11,-15,97,-11,-10,-10,3
-15,-10,2,9,37,35,4,-1,3
3,-26,0,2,-28,-19,-2,-2,3
-8,12,-7,-7,5,-6,-3,-3,3
6,18,4,-8,-55,-10,0,2,3
5,-39,-19,0,39,23,5,6,3
3,-2,7,0,13,-2,1,1,3
5,3,-4,2,0,4,1,0,3
8,35,-6,3,-45,1,-4,0,3
4,15,0,-5,0,-1,-1,-1,3
-10,-13,-10,4,-4,-6,-1,-1,3
-7,-31,-6,-12,6,-7,-3,-2,3
-1,6,3,8,20,10,3,0,3
11,24,16,2,-52,-12,-4,1,3
4,2,-3,0,52,8,1,4,3
-12,-6,-3,-1,18,-4,-2,-5,3
-14,-28,-8,-4,-16,6,2,1,3
2,-15,-6,-7,-60,6,0,-1,3
-7,1,-2,-12,-1,-26,-11,-9,3
19,54,26,21,102,26,2,2,3
2,13,20,3,-2,11,5,7,3
8,-12,-22,-13,-13,-8,-4,-2,3
2,17,-13,-1,-61,7,0,-1,3
-7,-23,-8,-4,8,-28,-2,-1,3
4,13,18,11,5,11,2,-1,3
-7,-17,3,-8,-12,-24,-5,-3,3
-9,-48,-20,5,22,9,2,3,3
7,18,3,3,-10,-3,-2,-3,3
-5,-22,0,4,-7,3,2,0,3
0,29,17,1,10,11,3,2,3
6,12,-2,-6,-6,7,1,0,3
-17,-15,-3,-1,-19,2,-2,-4,3
8,11,9,8,1,-6,3,5,3
-8,-7,-8,11,88,18,-1,-5,3
4,3,11,3,27,15,-1,0,3
-7,1,2,-2,-35,2,0,-2,3
5,-10,-11,-6,29,-11,0,0,3
3,35,-1,1,-32,-4,3,4,3
0,2,18,12,-28,-6,0,-1,3
-5,6,8,-11,-30,-9,-2,-4,3
18,18,-14,-10,12,3,-1,3,3
-21,-5,-16,2,-4,-2,0,-6,3
-8,-38,-2,1,19,6,-3,-3,3
-7,-10,6,-3,-24,-20,-5,-7,3
-1,1,-14,-10,-27,-4,-1,-2,3
6,-1,17,13,39,-12,-2,5,3
1,5,1,-3,-2,13,6,6,3
9,8,-7,-2,10,1,0,1,3
3,5,8,2,-59,-3,4,3,3
-5,-10,-2,-18,59,10,-5,-3,3
3,19,-28,12,24,-20,2,5,3
13,-32,16,17,-8,9,3,7,3
-10,-9,-1,-5,-9,-5,-5,-7,3
5,2,1,-2,-59,-17,0,2,3
-10,25,4,-11,18,7,-1,-4,3
-11,-5,-20,-9,37,-21,-3,-4,3
-1,-20,10,26,0,19,3,3,3
-1,0,9,-3,-33,-12,-2,1,3
-5,-19,-13,-4,-19,-8,-3,-4,3
2,32,-12,-11,15,6,0,0,3
-10,-45,-3,-6,-8,-4,-3,-3,3
20,43,17,-3,-11,-5,-2,2,3
7,15,-11,-5,-20,6,0,0,3
-28,-52,-9,10,50,11,2,0,3
1,27,5,-2,20,4,-3,-4,3
-2,-7,-10,0,-15,25,5,-1,3
3,3,14,-6,-49,-13,-2,-1,3
2,0,-12,-6,1,-29,-11,-4,3
-3,-5,2,2,30,6,0,2,3
2,-21,0,2,52,14,-1,-3,3
-14,25,6,-6,-92,0,-2,-4,3
17,10,10,-6,16,2,0,2,3
-1,14,-18,4,1,-12,-1,0,3
-5,-5,5,-1,-33,-13,-2,-6,3
4,-9,-9,-6,23,5,-3,1,3
-7,-4,14,1,-5,5,-2,-1,3
2,-18,-3,-4,5,-20,2,2,3
10,21,3,2,-40,-1,-3,1,3
-17,-11,-2,-1,16,-10,-1,-6,3
6,20,-8,-13,-23,2,-2,-2,3
-11,-26,-2,5,-48,-3,-2,-2,3
0,-26,-4,4,31,0,2,2,3
5,1,10,1,83,-4,-4,-2,3
15,27,2,5,-49,20,6,6,3
-19,-1,0,-3,-7,10,0,-1,3
-9,-17,-15,-14,-24,-21,-7,-7,3
8,7,-8,-9,29,7,-2,-1,3
0,-19,-10,6,-62,14,5,2,3
9,30,10,0,114,-1,-4,-3,3
3,-13,-6,0,-36,-17,0,3,3
5,-2,2,-2,-4,3,0,0,3
-9,6,0,2,8,4,-2,-3,3
5,-2,12,6,-8,2,0,-1,3
-14,-44,-29,-8,-7,2,-2,-3,3
8,-3,-1,2,-25,-3,-1,-1,3
-10,-9,-3,2,29,19,1,1,3
-6,-5,16,1,-14,-31,-2,-2,3
7,9,-5,-5,20,10,2,-1,3
20,47,1,-4,-67,-29,0,3,3
-12,-23,-7,2,81,22,-2,-6,3
-9,-4,3,1,-17,7,4,-1,3
-17,11,12,7,32,11,-2,-1,3
-3,-47,-7,3,-82,-10,4,5,3
9,20,5,-5,7,-7,-7,-3,3
2,1,-9,-1,61,-5,-1,-2,3
2,5,5,-1,-34,-12,2,1,3
2,6,10,-1,-3,-7,-5,-7,3
-1,-12,-2,-6,-65,-14,-2,-1,3
-12,-12,-8,-8,37,11,-2,-2,3
2,4,4,-3,-93,-4,1,0,3
-16,31,-2,-1,55,3,-1,-7,3
4,-11,-4,10,65,11,5,1,3
4,2,-2,0,-22,-20,-7,0,3
13,26,10,-4,-3,0,1,3,3
-13,-40,-8,0,6,4,-2,-1,3
8,48,12,7,-29,-3,4,2,3
1,11,-14,-10,-87,3,2,-1,3
-12,-16,8,3,93,7,-1,-4,3
7,-9,-3,1,30,25,1,3,3
-11,-8,0,-2,8,-6,-3,-3,3
12,-8,-1,5,-21,-1,2,2,3
-1,35,11,2,-41,-12,-1,1,3
12,-16,13,-2,-56,-25,0,4,3
-14,-25,-20,7,98,74,7,-4,3
1,7,-7,-8,-24,-22,-5,-4,3
-7,-14,-2,-2,10,3,-5,-3,3
6,18,13,11,-16,3,5,6,3
5,2,-4,-16,-25,-25,-4,-2,3
1,-7,3,0,0,26,5,1,3
-3,-13,3,13,33,11,2,-2,3
-3,20,-21,-4,-27,-36,-3,-5,3
1,-20,3,1,1,0,-3,0,3
11,45,-4,-2,19,8,1,1,3
-14,-40,-1,-9,2,-10,-2,-2,3
-12,-52,-2,0,-1,13,-2,-5,3
5,26,-5,-3,-38,-24,-4,-1,3
2,3,-2,2,22,1,0,1,3
8,1,-2,2,-24,-5,3,1,3
-4,6,4,-10,35,9,1,-3,3
8,8,2,-3,32,3,-3,3,3
-2,-23,-10,0,-89,-28,-2,0,3
-1,14,-4,6,78,16,-4,-3,3
-4,4,11,16,63,11,1,1,3
-2,-12,3,-6,-37,-19,0,4,3
-9,-25,-3,-7,-29,8,-1,-7,3
6,34,-6,-11,-31,-6,0,0,3
18,32,-10,-8,7,1,-7,-5,3
-13,-4,8,11,-11,-7,1,2,3
-24,-44,-1,5,23,6,-2,-3,3
2,12,2,6,-10,10,5,1,3
-10,-37,10,-6,9,-7,-6,-1,3
15,18,-15,-13,-24,-11,-4,-1,3
-4,-2,-10,2,20,9,3,2,3
-11,-26,3,2,-7,6,0,0,3
-6,10,4,9,-1,6,5,1,3
-5,-15,-4,-5,-79,-12,-1,-6,3
-6,27,6,1,102,-4,-6,-3,3
15,22,-1,-2,-54,-3,0,1,3
-13,4,-8,-8,50,8,0,0,3
7,4,5,-2,-33,-11,2,0,3
11,28,4,-7,7,-8,-1,1,3
-9,-11,7,4,-39,4,-1,-4,3
-13,-45,-18,-1,12,-23,-4,-3,3
-14,13,11,2,13,1,-2,-4,3
16,14,-8,-7,-26,2,0,3,3
5,-7,-10,1,29,-4,0,1,3
10,14,14,4,-34,7,0,-1,3
-16,-42,-13,11,31,0,0,-1,3
2,4,7,-7,-9,3,-1,-1,3
3,-4,-7,-2,9,-4,0,-3,3
5,20,7,-3,-35,-3,1,2,3
0,18,3,-11,15,-5,-5,-3,3
-12,-65,-2,-2,-17,2,0,-2,3
-7,18,-5,8,57,-2,0,-2,3
16,5,5,-2,-17,25,1,0,3
5,-6,-2,-10,84,6,0,2,3
-1,8,-2,3,-47,-16,3,-1,3
5,-15,-3,-4,-14,-3,1,0,3
-4,2,-2,7,-9,-3,0,-3,3
-1,4,5,8,-25,10,1,1,3
15,67,8,-5,5,-5,-2,-5,3
-10,-8,-17,-1,-1,5,0,4,3
-14,5,-4,-10,-4,-8,-3,-2,3
3,-10,4,-4,-2,0,2,1,3
7,-24,-1,1,23,19,2,3,3
0,60,1,7,-21,-23,-5,-4,3
2,-66,-5,3,4,5,-2,0,3
-12,-2,-2,-7,-2,-6,-4,-4,3
1,14,5,7,-24,14,2,2,3
-13,-17,0,-5,10,-8,-1,-1,3
-1,26,-6,-3,-12,-24,-3,-1,3
7,-20,1,10,53,11,3,0,3
13,29,-7,-10,-41,-7,-1,4,3
-3,-13,-3,-4,4,13,0,0,3
-5,-3,2,0,7,1,0,-1,3
8,12,8,-8,-25,-6,-3,0,3
-14,-17,-12,4,25,-3,-2,-3,3
-1,-25,0,8,-45,3,2,2,3
-5,-4,9,3,39,-4,3,2,3
10,26,-7,3,-20,3,0,-2,3
3,-22,-9,-5,6,-5,-6,-7,3
3,-21,3,-6,11,-2,-3,-2,3
-5,1,-6,-8,-25,1,-2,-1,3
-5,-20,-1,-4,-4,3,1,0,3
28,70,20,8,4,2,4,7,3
-20,-49,4,6,-84,-8,0,1,3
-5,-10,-20,0,108,3,-5,-7,3
-8,5,-7,-1,-48,-4,1,-1,3
-15,-39,0,-9,28,2,0,-2,3
17,15,-4,-5,4,7,0,3,3
14,15,6,6,-60,-8,2,4,3
9,61,10,0,11,-27,-7,-4,3
-19,-79,-4,8,-22,17,1,-2,3
9,34,-9,-15,50,-3,-6,-5,3
-12,-35,-3,-4,-31,3,-2,-2,3
-7,-10,-9,4,4,-3,0,1,3
0,7,12,4,-9,-2,1,3,3
3,2,-2,0,34,0,-1,-1,3
14,20,5,-3,-41,11,3,3,3
-19,-51,-6,-15,-27,2,-1,0,3
10,89,0,15,47,-20,-7,-2,3
-18,-77,6,6,41,17,1,-2,3
6,28,2,-5,-7,-4,-1,1,3
8,-3,-9,2,-21,8,2,1,3
-2,-9,-2,3,-21,-6,0,0,3
5,38,10,2,19,9,-1,-2,3
-4,-30,0,-6,-20,5,2,-2,3
1,-16,-4,-11,-20,3,-4,-4,3
-25,-21,-24,-3,21,-22,-4,-3,3
14,42,10,5,12,-3,-2,0,3
-3,6,8,4,1,2,0,1,3
-1,26,11,7,-17,-2,2,1,3
1,-12,-8,-17,1,0,-1,-2,3
1,-5,-5,-5,-28,-28,-2,1,3
12,11,3,17,30,49,6,5,3
-15,-12,-3,4,65,-10,-4,-3,3
-3,-3,-3,-9,-23,1,-1,-4,3
-3,9,0,-5,-32,0,3,-1,3
2,-10,-7,-14,-30,-18,-3,-4,3
9,-5,-8,11,12,3,0,1,3
4,6,18,15,-2,-2,1,2,3
1,5,12,1,24,13,-2,-2,3
-20,-20,-18,-9,8,-12,-5,-5,3
0,-10,-9,4,-16,4,4,1,3
-6,7,9,-10,-5,0,-4,-3,3
7,13,1,5,-11,3,0,2,3
3,29,12,-7,-73,-30,-3,1,3
-1,-24,-13,-12,14,-27,-4,-2,3
16,2,-3,13,49,28,5,6,3
-25,-22,-12,-9,-42,-6,-4,-9,3
-4,-6,-5,-4,32,-4,-1,3,3
6,18,0,1,-48,-5,2,-1,3
2,-15,-1,2,-16,5,0,0,3
7,12,-3,-4,15,-19,-1,1,3
-3,-6,5,10,-5,-3,1,0,3
-1,-14,9,0,-4,8,1,1,3
-11,-36,-3,-14,27,9,-1,-3,3
3,28,-11,-7,-8,-5,0,1,3
21,51,5,8,3,1,-1,1,3
-6,-22,6,10,-11,-8,0,1,3
-20,-32,-9,-7,-33,15,-3,-6,3
3,7,3,9,74,16,2,4,3
-10,-48,1,-18,-11,-10,-4,-2,3
-7,18,-18,0,-34,-1,-2,-6,3
2,-4,7,10,2,7,3,0,3
2,-12,-1,-1,18,14,-1,-3,3
-1,15,7,1,29,5,0,1,3
2,14,11,-4,-42,-2,-1,-1,3
7,10,-3,-5,-23,-14,-2,-1,3
9,-13,6,3,9,2,1,1,3
-33,21,-10,1,-8,6,-1,-4,3
-1,-10,4,1,7,3,-2,-2,3
5,20,-2,-1,7,-10,-1,-1,3
2,-11,7,-4,-4,2,-2,0,3
-5,-37,-6,1,-6,7,2,0,3
15,28,-5,5,18,-6,1,5,3
15,78,14,3,-1,-8,-3,1,3
-17,-58,-16,-10,-12,-9,-7,-9,3
12,23,1,-2,-30,10,1,1,3
-16,-35,-4,-7,104,3,-1,-5,3
12,-4,3,11,-14,13,6,6,3
-17,30,5,-2,-83,-14,-2,-2,3
4,-6,-1,6,94,-1,-1,1,3
-2,20,5,-3,-3,9,1,0,3
-12,-36,-13,-15,-26,-15,-5,-6,3
4,-1,-9,11,22,15,5,2,3
11,-1,7,13,-30,2,1,2,3
2,-3,6,6,-22,-14,-2,1,3
-9,-23,-3,-7,21,0,-3,-1,3
7,19,5,-8,-27,-9,-1,2,3
5,16,-7,-10,-6,-3,-1,-2,3
5,7,-9,-5,5,6,0,-1,3
-18,-23,-10,4,-1,2,0,-3,3
-2,-1,11,6,0,-2,0,0,3
12,-7,7,3,-26,-5,-2,1,3
-2,-1,4,-11,28,0,-3,0,3
0,-30,-21,-12,-1,11,3,-2,3
-5,-44,4,13,8,3,2,2,3
-10,3,-6,-2,33,-16,-1,-2,3
14,-4,5,9,-49,2,4,6,3
-14,-7,-14,-14,19,-14,-7,-4,3
-5,-12,7,7,44,18,1,0,3
-2,1,-8,0,5,-10,1,-1,3
2,3,10,3,-17,-3,-1,-3,3
10,14,15,-2,-18,-17,0,3,3
-8,9,-17,-2,-32,2,1,2,3
1,-9,-3,-2,1,3,-1,-3,3
15,21,2,-1,-10,0,-2,3,3
0,1,14,-3,-16,-5,-3,-5,3
-6,6,-29,-9,11,7,-2,0,3
-3,0,7,13,33,15,5,1,3
-9,-12,-1,6,12,10,-1,-3,3
8,5,11,5,-8,-5,1,2,3
5,19,2,-14,-15,-11,-5,-4,3
2,9,-1,-4,-17,-3,0,1,3
0,-15,-1,-9,-54,-4,-2,-2,3
-9,-7,-5,-14,59,-2,0,1,3
14,12,4,15,53,22,4,2,3
-8,21,4,1,2,-7,-6,-6,3
-10,-8,-4,-1,14,3,-3,-4,3
-1,-11,-6,5,-53,-5,1,4,3
3,6,4,-20,-76,-9,1,1,3
1,10,-13,-4,73,3,-6,-2,3
-2,-11,5,16,4,10,3,2,3
-1,21,9,12,6,2,-1,-1,3
-3,-32,4,-1,-25,-14,-3,-5,3
4,49,10,-12,-31,3,0,-1,3
-6,-22,-22,-12,4,-9,-5,-6,3
2,12,-10,-3,8,3,-3,-1,3
1,-11,10,2,-25,5,1,3,3
-6,-27,-7,1,-35,-23,-3,0,3
-5,27,4,-3,63,4,-1,-1,3
2,4,2,0,-25,14,5,2,3
0,3,2,1,70,-5,-5,-7,3
-8,-38,-21,-4,-1,20,2,-2,3
-6,7,-6,0,-69,-12,-2,0,3
4,-24,8,10,35,5,-4,-2,3
-2,15,-5,-1,1,10,1,1,3
3,4,6,-7,-13,-9,-2,2,3
-3,18,3,-1,18,-9,-3,-3,3
1,-14,0,-4,-38,-4,3,2,3
0,-17,-11,-11,-4,-9,-4,-3,3
-9,-4,1,11,5,8,1,-1,3
4,15,8,-1,-37,3,-1,-1,3
-14,-21,8,-5,53,-5,-2,-2,3
14,18,-4,6,6,2,2,5,3
-15,-82,-17,6,-12,0,-1,-2,3
-6,18,-6,-5,-9,4,-4,-4,3
4,9,7,0,0,7,0,2,3
-3,-4,-5,-4,-11,-28,-4,-2,3
11,16,9,1,12,4,2,5,3
1,-19,-7,1,8,1,3,3,3
2,8,1,7,15,25,1,0,3
8,21,2,-8,-65,-14,0,2,3
-2,-10,5,-6,78,15,-3,-1,3
-2,0,-1,0,8,-23,-4,-4,3
-1,12,4,6,-20,6,0,-1,3
-7,-13,-11,1,-8,-14,0,-1,3
7,12,7,-7,-53,-14,-3,0,3
-2,-22,-2,-3,17,3,1,1,3
-8,-4,-4,1,-7,-6,0,0,3
4,39,11,-2,0,-2,-6,-2,3
8,-1,-27,-11,-23,-5,-1,-6,3
19,30,4,-2,7,2,0,0,3
-3,-13,4,10,4,-4,2,1,3
-11,-31,1,-1,17,5,0,-3,3
-8,15,4,-1,-22,-6,0,-2,3
-2,-11,-6,-4,32,8,-1,-2,3
4,10,-1,7,-26,-22,0,0,3
7,-4,0,-1,-13,11,1,0,3
-15,9,7,-1,17,-3,-1,-2,3
0,-15,5,-3,3,1,-2,-4,3
-6,-3,-13,-2,-18,2,0,-1,3
3,18,1,-1,10,-3,-2,0,3
10,2,6,7,-5,-8,1,4,3
-8,-8,0,-1,-47,13,2,3,3
16,31,-11,-13,58,6,-2,3,3
-32,-38,-5,-2,-6,-18,-6,-8,3
-1,-8,-6,-2,-24,-1,-2,-6,3
-8,-13,14,10,12,0,4,4,3
8,18,-7,-7,-28,-5,-2,-3,3
15,10,-4,0,-38,3,3,6,3
1,3,4,-5,57,4,-3,1,3
-9,-14,-11,1,2,5,-1,-2,3
2,-8,6,-6,-39,-17,-4,-4,3
-9,20,5,-5,-26,-37,-7,-4,3
-1,-24,-8,17,64,55,2,2,3
10,12,7,5,-45,12,8,2,3
-9,-15,-6,-4,-1,2,-3,-3,3
1,-17,0,-7,6,-18,1,0,3
-4,19,-5,-14,-54,-9,-3,-1,3
4,-16,-11,-6,39,-3,1,4,3
-5,26,16,16,-20,9,3,-2,3
6,-7,0,0,25,13,-4,-4,3
5,1,0,9,-48,-9,2,1,3
5,-3,-1,3,42,3,0,0,3
-6,-24,-11,-11,11,-31,-3,-2,3
-1,-12,0,3,-2,24,2,2,3
4,28,13,-9,-11,-8,0,1,3
9,24,-4,-7,-27,-17,-5,-1,3
-1,-18,-3,10,23,24,4,2,3
-6,-9,2,4,-14,-7,-2,-2,3
-6,0,4,-5,30,-2,0,-3,3
-16,-15,-9,-3,8,-3,-3,-3,3
-11,-15,-27,-7,2,5,-5,-6,3
17,22,14,4,-11,9,2,2,3
4,2,0,-1,-7,-11,-1,-1,3
-4,9,9,0,-16,11,-1,-3,3
4,8,13,-3,-31,-33,-2,0,3
-14,-28,-34,2,41,16,3,0,3
-3,-13,7,0,-20,-10,-3,-1,3
14,53,5,-3,11,-3,1,2,3
-12,-91,0,0,-8,11,1,-3,3
-10,0,-5,-5,-43,-9,-4,-4,3
-3,25,-7,-9,33,-6,-8,-6,3
-12,-34,-4,6,-3,-2,-2,-2,3
10,34,9,-2,-41,-19,0,1,3
9,-7,14,7,66,20,5,4,3
3,-20,-8,1,-30,-1,2,1,3
-6,13,9,-6,4,5,-2,-1,3
-6,9,-15,-12,12,1,-3,-5,3
0,-12,-10,-1,-65,-8,-2,-2,3
-3,15,-1,2,61,1,-1,-3,3
11,-4,2,9,-17,0,1,3,3
5,3,5,2,9,9,1,1,3
-29,-2,0,-9,5,13,-1,-2,3
6,5,3,-4,-36,-10,-3,1,3
-7,-11,1,-3,-12,-8,-2,-3,3
14,24,-8,1,11,7,2,3,3
3,-12,5,5,53,11,2,1,3
-13,-9,1,2,-33,-2,1,1,3
10,11,2,-6,2,-17,-5,-2,3
-7,2,1,-8,-9,2,-1,-1,3
10,14,-20,-2,0,-5,-2,-1,3
-5,-18,6,18,-17,12,5,3,3
-1,-12,3,-4,13,-20,-3,-2,3
1,8,1,5,24,-8,-3,0,3
10,2,12,4,52,24,2,2,3
-11,-11,-14,-6,-33,-1,-1,-5,3
-19,-7,-15,-7,-34,-1,-3,-5,3
12,46,3,5,-2,-1,-2,-1,3
-1,-12,8,2,-4,-11,2,1,3
9,-2,-1,-6,-15,-5,-2,3,3
1,4,-4,3,23,16,1,-1,3
-8,6,2,2,0,13,1,-1,3
8,-6,4,5,8,-8,-2,0,3
-19,-15,-5,-1,-23,1,2,-3,3
3,19,-14,-8,11,4,0,1,3
-1,-13,-6,-8,-7,8,0,0,3
7,10,-1,-4,10,-14,-3,0,3
7,-7,6,9,-26,3,2,3,3
-5,-8,1,1,-4,0,1,0,3
4,-2,-1,-2,50,4,-2,0,3
3,4,-3,1,-12,1,1,3,3
-19,-15,-3,-4,11,-2,-1,-1,3
-6,-9,3,0,0,-2,-1,-1,3
13,42,5,-7,-49,-11,-2,1,0
-15,-14,-6,-9,-13,-6,-1,-5,0
17,18,1,0,23,3,0,1,0
-1,-3,6,12,2,4,1,0,0
-14,-43,6,3,-19,-4,-2,-2,0
-2,30,2,-1,-9,-21,-3,-3,0
15,3,15,4,29,4,0,3,0
-1,14,-21,-1,-12,-3,-4,-3,0
-10,-14,4,1,-16,-1,0,-3,0
-5,6,-7,-8,16,12,-3,-5,0
10,19,8,0,-1,-13,-2,0,0
4,-6,10,-5,-41,-1,-3,-2,0
2,0,-5,6,3,-17,1,3,0
-7,-27,-10,-3,39,3,1,-2,0
9,21,2,-2,-7,-2,-3,-1,0
-7,-12,6,-9,8,3,-3,3,0
-1,-14,-22,-4,15,17,-3,-4,0
9,5,9,6,-26,6,8,7,0
-8,-35,-11,-13,3,-6,-2,-8,0
2,-4,1,12,2,2,6,4,0
-1,22,10,5,-18,-4,-3,-3,0
-5,3,2,-4,0,-1,-5,-4,0
3,10,-5,-5,7,5,0,2,0
-1,-9,10,0,-10,-3,-1,1,0
-6,-18,-5,-3,12,0,-2,-5,0
1,25,1,11,3,3,-1,1,0
-4,-27,-6,-11,-17,-3,-3,0,0
5,-5,8,0,-42,-7,-2,-2,0
2,34,-1,4,51,-2,0,2,0
-2,-12,-6,-7,-12,2,0,-1,0
-8,3,-5,-5,1,3,-4,-5,0
-6,-7,-5,2,-4,14,2,0,0
5,-5,2,-7,-39,-9,1,-1,0
-5,-6,-2,-10,28,6,-4,-3,0
7,7,-11,2,7,-3,-1,1,0
7,-9,3,-3,30,4,1,-1,0
-13,-6,-1,6,-39,-1,1,1,0
9,18,18,-1,-21,-5,-2,0,0
-4,1,-32,-13,15,3,-2,-5,0
5,7,4,6,3,-5,2,4,0
-8,-21,9,9,12,1,-2,-4,0
15,-10,-4,2,-15,-4,1,2,0
-18,3,11,0,2,1,0,3,0
10,41,5,-19,-8,-10,-3,-3,0
0,10,-18,-12,10,2,-2,-3,0
-9,-17,-10,11,6,4,0,-3,0
8,7,6,12,-3,4,1,-1,0
-8,-18,-4,-2,14,-1,-2,-3,0
9,9,7,-7,-10,3,0,4,0
4,0,-6,-9,-2,4,-1,-1,0
-3,-10,-5,-3,-21,-7,1,1,0
-3,-3,5,11,15,-1,0,3,0
10,-2,-5,-6,19,8,1,1,0
-5,0,-6,0,-7,-3,-6,0,0
2,-5,7,-1,8,11,3,-1,0
0,2,-13,-9,-4,-7,0,-2,0
-3,-17,16,0,-15,1,0,2,0
3,18,-10,2,2,-1,1,4,0
-3,-6,-4,15,4,-6,-7,-6,0
2,-5,-2,5,6,-1,-2,-4,0
-4,-10,-4,-9,5,0,1,-3,0
-1,6,9,-11,-13,-5,-1,-2,0
0,-5,1,-2,-6,-4,-1,-1,0
-4,-1,-9,-3,3,0,-1,-1,0
-3,-4,-4,1,6,-1,0,-3,0
3,9,9,4,-5,-1,0,0,0
2,6,2,5,-6,-2,1,4,0
-10,-11,-1,0,4,-1,-1,-3,0
0,-6,-3,3,6,2,0,-1,0
9,10,-3,1,-6,-3,-1,-1,0
-3,13,1,0,-4,-2,-1,0,0
-16,-32,-4,-3,4,-2,-3,-2,0
-8,-26,-3,6,7,0,-2,0,0
-7,-15,-4,-4,-7,0,-1,-4,0
5,-6,-3,-10,-6,-3,-3,-2,0
14,32,11,-20,-2,0,-3,2,0
2,6,-4,9,1,-1,5,7,0
-7,-16,3,5,1,0,-1,0,0
-13,5,3,-4,-4,-2,-2,-4,0
6,2,-6,5,3,2,-1,-1,0
-2,-2,4,-5,-1,0,-1,0,0
17,27,-6,-37,-9,-3,-3,-1,0
1,-20,1,30,0,-2,-4,2,0
-8,15,0,20,7,-1,0,0,0
-16,1,3,8,4,2,2,-5,0
-4,-3,3,-2,-5,-4,-6,1,0
9,14,-2,-19,-4,-7,7,2,0
0,-28,-7,-9,-4,0,-6,1,0
17,13,-1,1,-1,-1,-2,1,0
-25,-17,7,2,2,0,-2,-6,0
2,5,0,-3,0,0,-2,-5,0
5,5,1,10,2,1,2,-3,0
9,12,-6,-14,-2,-1,-5,0,0
-7,-5,-3,7,-3,4,14,-3,0
-7,-4,9,2,6,-1,10,1,0
-19,-10,-1,10,-2,3,-19,-9,0
1,-5,-11,-9,-2,-5,-7,-6,0
7,-8,-1,1,-5,-4,16,4,0
8,4,4,3,6,-1,-25,-7,0
32,40,4,-6,-1,-3,-14,-1,0
-40,-36,-2,4,0,4,-3,-5,0
-7,-8,-6,-8,-3,-2,11,-3,0
-1,0,-4,3,-2,-1,9,5,0
8,-14,-3,-7,3,7,14,2,0
13,56,11,0,-1,0,0,-2,0
2,-22,-17,-5,-4,-2,-6,-3,0
-20,-37,1,8,-1,2,-2,-2,0
4,-4,0,-1,-1,-6,-10,-1,0
11,-8,3,-2,-1,-1,9,3,0
-8,7,-1,4,0,2,-16,-1,0
13,25,-11,-20,-8,7,28,-1,0
-3,-5,3,8,3,-4,-21,0,0
16,25,-9,-7,-3,-16,-13,4,0
6,1,18,12,2,4,8,-4,0
-1,6,-3,-1,0,8,13,-3,0
-54,-29,-17,-16,-11,-24,13,-9,0
-4,-1,1,0,-1,7,-14,-11,0
9,33,5,9,4,5,9,8,0
13,-26,1,-1,-1,4,4,7,0
30,4,6,-1,-1,5,18,4,0
-20,-16,-9,-9,-10,-11,-12,-1,0
28,4,5,7,8,3,-1,2,0
-24,-10,1,-1,1,0,-7,-4,0
-9,10,4,-5,-1,0,-2,7,0
11,30,-8,-3,-2,0,4,0,0
-4,-18,5,5,-1,0,-6,1,0
41,85,21,5,4,-1,-10,12,0
-34,-90,-25,-10,-6,-8,-7,-20,0
53,4,15,9,1,6,11,7,0
-76,-6,-17,-5,-4,-9,-10,-7,0
-4,-42,-9,-12,-6,-6,-14,-12,0
-3,8,-1,-4,-4,4,8,2,0
-5,-41,-6,0,2,5,16,1,0
96,69,19,6,-4,-10,-20,17,0
-43,-47,-9,2,4,5,3,-9,0
-12,38,-2,-9,-3,-5,-5,0,0
7,13,-8,0,-3,1,6,1,0
-8,13,7,2,0,12,9,-5,0
16,-69,2,5,2,-13,-8,5,0
23,66,4,-1,-2,4,12,4,0
-37,-24,-7,-5,-1,-7,-2,-5,0
-8,20,5,-4,-3,3,13,0,0
21,42,-1,2,-1,9,11,10,0
40,-41,-3,3,0,-3,-11,1,0
-33,-33,8,4,2,-6,-7,2,0
80,70,2,0,1,0,-1,7,0
-88,-64,-16,-8,-7,-8,-11,-22,0
29,26,-3,-5,-4,-1,-6,0,0
21,-8,-6,-10,-3,5,2,1,0
17,-54,-3,7,9,1,-7,5,0
-2,-31,3,9,2,0,9,13,0
-35,42,8,5,-1,0,3,-1,0
-13,10,-7,-12,-3,-4,-10,-10,0
-17,-9,-10,-5,-2,-5,-3,-4,0
4,11,-4,-5,-4,-2,-6,3,0
3,-2,3,-4,-8,-2,1,6,0
34,9,9,7,4,6,8,4,0
27,-26,7,5,-1,2,10,2,0
-32,28,-25,-17,-10,-11,-22,-18,0
-3,-36,-6,-2,2,11,21,0,0
-18,57,9,5,0,-11,-18,-1,0
1,-41,-9,-3,-1,7,-2,-4,0
-31,3,3,-4,-6,-8,13,-3,0
3,24,1,2,5,11,2,-3,0
20,-20,5,5,2,-2,0,4,0
-58,-30,-5,2,8,3,-4,-2,0
57,31,14,5,0,3,1,8,0
-43,-12,-19,-12,-9,-8,-21,-13,0
6,-14,-6,-11,-6,5,3,-8,0
-25,-15,0,-2,-3,-11,-13,-3,0
33,20,6,13,7,6,3,6,0
48,1,11,12,8,4,12,9,0
-68,-17,-9,-1,-9,-4,-2,-1,0
-3,12,-8,-15,-6,-6,-5,-7,0
8,11,13,4,1,-1,-3,-1,0
20,10,8,6,2,0,0,9,0
0,-11,-3,-4,0,-4,-3,-2,0
-50,-27,-3,5,6,5,9,-3,0
24,25,1,-4,-1,-1,-3,1,0
-19,-25,1,-2,1,-3,-4,0,0
18,16,1,1,2,4,1,-2,0
-5,15,-5,-3,-5,1,15,-6,0
17,15,-6,-2,0,-8,-36,-3,0
-30,-14,4,-2,0,6,14,-5,0
-23,-9,-13,-3,-3,-12,-10,-8,0
4,-22,1,1,-2,-2,-3,2,0
2,-7,-3,-4,0,5,9,3,0
10,30,3,2,0,3,4,-6,0
20,-15,3,7,4,1,-21,0,0
7,12,-2,-9,-3,-12,-20,-3,0
-22,-7,-4,1,-1,-1,7,-4,0
6,-3,-2,-4,2,-2,-4,5,0
-11,4,5,22,-6,0,5,1,0
25,-4,5,4,4,3,10,2,0
-4,3,-3,3,-5,-3,-7,0,0
-12,-11,-1,-1,2,0,1,-2,0
14,15,4,-12,0,2,6,6,0
-13,-2,-7,2,-1,0,-2,-2,0
7,1,-2,-3,1,2,7,1,0
0,-12,-6,-1,-1,-5,-4,-4,0
-11,-10,5,3,-4,3,2,3,0
9,34,5,2,3,-3,-6,0,0
-6,1,-2,-8,0,0,1,-5,0
11,-34,-2,5,-3,-1,-8,5,0
2,12,2,1,5,1,4,1,0
-12,-11,-13,-10,-8,1,7,-9,0
14,-17,-8,-9,-2,-13,-12,0,0
-2,29,1,3,0,-9,-8,-3,0
42,2,-7,-5,-2,6,8,5,0
-22,-13,3,7,2,3,14,2,0
-39,21,2,-2,-2,1,-6,-5,0
22,-14,4,-5,-1,1,2,2,0
-31,-33,-6,7,4,4,-1,-4,0
19,24,-7,-10,-6,-14,-12,-4,0
-5,-22,0,-1,1,2,-12,-1,0
-10,5,11,4,-1,2,6,-1,0
38,62,8,1,1,-4,9,5,0
-6,-10,-6,-14,-6,-3,-8,-5,0
11,3,7,16,4,3,4,0,0
-18,-30,-14,-12,-5,-1,3,-4,0
5,-10,5,1,7,6,6,0,0
-21,-8,2,2,-3,-1,-6,-2,0
5,26,1,-2,-2,0,5,2,0
23,23,4,-7,0,0,-11,6,0
8,-46,-13,0,-9,-5,-4,-6,0
-16,35,-3,-2,0,-2,-8,-4,0
-1,-50,3,7,7,5,11,-6,0
-1,11,-5,7,-1,-5,-5,-4,0
-26,20,1,-9,-1,-3,-8,-3,0
18,-15,2,2,-2,2,-1,6,0
10,16,4,-3,0,6,16,6,0
-22,-14,-14,-7,-1,-7,-13,-14,0
-7,-9,-4,12,6,1,1,-4,0
13,24,6,6,0,-3,-2,1,0
-38,0,3,0,1,-1,1,-1,0
1,-11,3,0,0,1,1,2,0
6,-5,-4,-6,1,4,4,2,0
-5,-8,-2,-3,2,-3,-10,-4,0
20,6,-2,-2,-3,6,34,4,0
-12,-8,0,0,-4,-15,-47,-3,0
-1,8,3,-1,0,3,2,-1,0
4,-28,-1,1,-1,-7,-13,5,0
9,15,1,-2,-2,-2,-1,2,0
13,13,-7,0,-1,3,13,-3,0
-35,11,2,-3,-1,-2,-4,-3,0
2,-8,1,-6,0,2,3,0,0
-2,-6,-8,6,-5,-2,-13,-3,0
2,-15,8,11,7,5,15,5,0
6,12,5,0,0,0,-2,-3,0
-16,-24,-7,3,0,1,10,-1,0
1,9,5,-10,-5,-8,-10,-4,0
9,19,-4,3,-6,0,3,5,0
8,-23,-4,-5,-3,-3,1,-7,0
-18,0,7,4,2,4,10,5,0
27,-28,-11,-6,0,0,-6,-5,0
-29,12,0,-5,-4,2,-6,-4,0
8,-4,-6,-15,-9,-11,-9,-2,0
9,9,-3,4,0,-2,-14,-1,0
-3,0,6,12,3,0,-6,3,0
4,-2,0,-1,2,5,8,-1,0
0,5,0,-4,-1,-1,5,2,0
18,3,6,5,0,5,10,-2,0
-42,6,-4,-3,-3,-1,-6,-1,0
8,36,4,1,1,-1,-6,-1,0
6,17,-2,-2,-2,0,9,3,0
-9,-33,-9,-6,-4,-3,-7,-7,0
-7,-13,3,-3,0,-2,-2,-1,0
-8,-17,-5,0,-2,0,3,-2,0
-1,10,0,2,4,1,-7,0,0
3,8,-4,6,-3,0,3,1,0
13,6,8,14,2,0,4,-3,0
-14,-9,6,7,3,0,0,-1,0
-1,-3,-1,-23,-6,4,9,0,0
-12,-5,-6,11,-2,0,10,-6,0
14,9,-9,-10,-1,-7,-26,-2,0
10,-9,0,-2,0,3,7,1,0
-7,-4,-3,-3,-1,-8,-15,-3,0
13,22,-1,-11,-4,-4,1,-1,0
-19,-30,-2,-3,-3,0,7,2,0
-16,4,-2,-5,0,-1,4,-2,0
3,-10,-1,-1,6,5,-2,0,0
-5,-4,3,13,-2,1,0,-3,0
15,20,0,4,0,-2,0,1,0
9,-18,-2,1,2,0,1,1,0
3,-5,6,5,-2,-1,1,-2,0
-28,8,-8,-8,-5,-3,-5,-2,0
3,1,-3,-15,-1,2,3,1,0
7,4,-3,4,-1,-1,-11,1,0
6,-7,0,9,0,-2,-2,1,0
2,-2,0,-6,2,1,-2,-5,0
10,4,-3,-8,-10,1,10,9,0
15,19,12,4,4,-4,2,4,0
-40,-40,-11,3,-3,-2,-5,-5,0
-10,-6,0,-5,2,-2,-5,-2,0
3,1,-3,0,-3,-2,1,-2,0
34,2,2,-12,0,2,7,3,0
0,14,5,13,0,1,-4,2,0
4,2,12,0,4,4,6,3,0
-6,-3,-7,-2,0,0,-6,-5,0
-11,-4,-3,-4,-1,1,-5,-3,0
-2,-10,-1,-2,0,-6,-13,0,0
8,-7,-6,-8,-3,-1,28,1,0
9,32,7,-1,-2,-1,2,0,0
-11,-13,-5,2,-2,-1,1,-1,0
16,14,2,-5,-5,-1,2,4,0
-5,5,-2,3,1,-1,-17,-2,0
-9,-14,-4,0,2,0,0,-1,0
-17,-15,-1,4,-2,-4,5,-3,0
36,9,2,-14,3,1,11,6,0
-30,-2,-2,-3,-4,-2,-6,-5,0
20,-17,-6,5,-2,-5,-6,-7,0
-56,-6,2,-5,-4,-2,-4,1,0
11,11,3,7,3,1,3,0,0
34,26,-2,-14,1,5,5,6,0
-11,-8,-5,10,-2,-8,-9,-1,0
-15,12,-7,-2,-3,-6,-5,-6,0
4,-4,10,2,0,4,2,3,0
-21,-30,-3,7,8,-1,2,-7,0
10,1,2,-3,0,6,14,1,0
20,8,-1,-1,-5,-8,-18,1,0
-25,6,-3,5,3,0,0,-3,0
12,-12,-4,-2,-1,7,5,3,0
-13,-9,2,-5,1,-14,-26,-3,0
21,7,2,3,0,3,15,0,0
5,3,-11,-7,-6,-3,-4,-4,0
10,-8,-1,2,-2,-3,-7,0,0
-9,-9,4,0,-3,1,6,5,0
2,8,10,-3,2,4,6,0,0
-6,11,-2,4,0,-1,-8,-3,0
20,30,1,13,-4,-2,-2,3,0
-15,18,-2,-2,0,2,0,-2,0
-4,-44,-17,-6,2,1,-2,-8,0
-8,-7,9,1,0,2,5,-1,0
-18,-17,1,-2,0,-3,-6,-3,0
-27,-4,-3,-9,-3,0,-2,-4,0
21,12,2,7,-2,-1,7,1,0
10,11,-6,2,0,0,2,-1,0
-8,5,3,0,-1,0,-19,1,0
32,2,-1,-4,-1,-3,19,1,0
9,12,-4,-6,-1,10,-6,2,0
29,2,-1,-1,-5,-17,-14,-2,0
-37,-2,-1,-6,-7,-4,-2,0,0
9,0,0,-2,5,4,-2,-1,0
4,-6,-2,-14,-2,1,0,1,0
5,6,-3,-13,1,5,15,6,0
14,13,10,26,1,-2,-3,0,0
-6,-20,6,3,5,3,-3,-4,0
5,-19,-6,4,0,0,4,2,0
-17,67,-2,-14,-7,-1,-12,-9,0
-22,-34,-13,-16,-5,-4,4,-5,0
6,9,-4,-4,-3,1,-2,1,0
-15,-13,4,-4,-1,-2,-1,0,0
2,-31,2,18,1,1,1,2,0
16,14,6,5,5,2,5,4,0
18,11,1,1,-3,0,-2,-3,0
-32,-4,-8,-6,-4,-5,-5,-7,0
-8,-10,0,3,-2,-1,-4,0,0
43,9,0,-4,-2,-2,5,-1,0
-32,-27,-2,1,2,1,-1,-2,0
-3,24,1,9,1,-1,-2,-2,0
-17,-21,-6,-9,-2,0,5,-2,0
24,1,-1,-3,-2,2,2,2,0
-15,-3,-8,0,-4,-3,-5,-3,0
13,11,7,-16,-2,-1,3,5,0
-10,-15,3,21,5,10,3,-2,0
3,-2,6,-6,1,-7,6,2,0
32,24,4,5,3,-1,-8,7,0
-18,-23,-6,2,-1,1,-7,-7,0
14,30,-6,-14,-4,-4,-2,-3,0
-11,-7,-5,-7,-3,2,3,-2,0
5,14,-1,-2,-3,0,1,1,0
17,-11,1,6,1,-3,4,1,0
-2,-14,2,1,4,5,3,4,0
-8,0,-3,2,2,2,-5,-4,0
3,2,4,-4,1,0,2,0,0
-32,-1,0,7,-1,-3,-5,-2,0
-14,-13,-5,-2,-5,-5,6,-6,0
8,3,-3,2,-4,0,-8,0,0
4,-14,-2,3,-5,-5,2,2,0
18,10,16,10,3,2,9,3,0
-8,3,-4,0,1,0,-6,0,0
-5,-30,0,3,2,0,1,6,0
4,13,1,-4,-1,2,3,-2,0
-12,34,-8,1,-7,-5,-5,-4,0
-8,-5,-8,-11,-4,-3,-5,-2,0
-2,-1,1,-11,-4,-1,-3,-3,0
-12,-16,-7,13,-2,2,4,-2,0
17,-3,8,1,5,-2,-5,4,0
-3,-4,10,7,2,3,5,1,0
12,12,-4,-4,-2,0,5,1,0
-10,-3,1,-11,-1,1,4,-1,0
17,6,-5,2,-3,-2,-1,-1,0
-24,-27,-9,-4,-3,-6,-8,-4,0
-9,0,-2,-6,-2,-4,-13,-7,0
15,11,-3,-2,1,5,18,1,0
-17,-2,-3,-2,-3,-11,-9,2,0
-11,-5,12,5,1,8,8,-2,0
-28,-4,-3,-2,-2,-16,-9,-2,0
-6,6,-6,-5,-4,-2,-2,-2,0
12,-18,-12,-10,-7,-2,1,4,0
21,10,13,14,6,6,8,3,0
-17,21,4,1,-3,2,3,-1,0
8,-4,-4,-2,0,-4,-8,-5,0
7,0,-4,-19,-4,0,4,1,0
-18,-27,-9,9,-4,-7,-8,-4,0
-14,-19,-6,-8,1,3,0,-1,0
16,8,1,2,-1,-5,-5,2,0
9,-1,1,3,2,4,1,-6,0
11,14,4,-7,-5,-4,-2,0,0
-3,-4,0,5,4,1,-7,1,0
-4,-13,-2,-2,3,1,4,-3,0
-4,-4,1,11,3,4,4,0,0
11,11,3,-2,-3,-2,13,6,0
29,10,3,6,-6,0,3,1,0
-14,14,-13,-11,-1,-3,-14,-3,0
-7,-7,-1,4,0,0,-4,-4,0
3,-7,-1,-5,-1,-1,3,4,0
1,-12,-5,-4,3,-5,-13,-15,0
-15,-5,6,9,-2,1,-1,-4,0
-5,-6,-6,-2,-2,0,1,-1,0
-4,1,-5,-7,-3,-1,-3,-3,0
-4,-32,-3,-4,-3,1,3,1,0
-6,18,2,4,-2,-1,-3,0,0
-8,17,-4,-19,-3,-4,0,-6,0
30,1,2,8,2,-1,-8,-1,0
-15,11,4,8,-1,0,-1,0,0
-6,-17,-1,1,0,4,13,0,0
4,0,3,-1,0,6,9,5,0
2,13,-1,-4,-6,-7,-7,0,0
16,-8,-5,-4,-1,-1,-3,2,0
-17,3,2,7,3,-2,-10,-2,0
-14,-11,0,4,-3,-2,3,-7,0
-10,-1,-10,-6,4,4,3,-2,0
7,12,6,-3,-2,1,4,1,0
5,4,-3,-8,-2,-1,-2,2,0
5,2,4,21,4,-2,-5,-1,0
0,-7,5,3,0,-2,-4,1,0
35,13,-3,-7,0,-1,-14,9,0
-47,-22,4,-4,-3,4,14,-7,0
-22,-4,-10,-5,-2,-6,0,-7,0
-6,-5,-9,-8,-5,-9,-24,-3,0
-6,7,-3,-1,-2,-1,6,0,0
23,-1,1,-2,0,-3,-7,3,0
6,-12,6,6,1,3,4,5,0
-12,-5,-2,-3,3,4,9,-3,0
14,12,-1,-6,-1,-1,1,1,0
-10,-22,5,21,0,-4,-9,1,0
4,6,2,-6,-1,3,3,4,0
-4,19,-2,-21,-3,-3,-8,-6,0
-11,-3,-4,12,-1,3,15,3,0
-51,12,-7,-7,-3,-3,5,-7,0
13,-5,-2,-4,1,-1,-12,1,0
10,-3,0,2,1,1,-4,1,0
1,-2,4,7,1,2,0,1,0
21,-1,-6,-15,-1,0,3,-1,0
-10,12,7,12,1,-2,-6,-1,0
8,-14,-4,-8,-4,1,4,1,0
-26,1,-2,0,-5,-1,6,-6,0
36,-13,10,8,10,5,-2,4,0
30,50,-2,-8,-1,-3,-12,3,0
-18,-21,-11,-1,-4,-1,7,-3,0
-27,-4,-5,-6,-3,-6,-12,-6,0
12,6,-2,-3,-5,-3,1,3,0
16,-10,2,1,2,3,6,2,0
9,6,6,8,2,5,3,2,0
1,5,5,-1,0,-2,1,0,0
6,-3,-3,-6,-2,-1,-8,-1,0
-1,-10,1,2,-1,-3,3,-1,0
-2,2,-5,-4,-3,-3,6,-1,0
-11,-19,2,19,2,1,0,-1,0
45,26,3,-8,0,4,2,4,0
-36,-39,-9,4,-5,-2,2,-8,0
-18,34,4,4,1,-2,-8,-3,0
15,2,-2,-5,-2,1,7,2,0
0,-2,2,-4,-1,-1,1,2,0
3,-3,-1,-4,-2,-1,-4,-1,0
9,-12,4,0,3,0,0,1,0
-2,0,-2,-1,0,1,-1,1,0
1,5,-5,3,0,-1,-3,0,0
-2,-6,-3,-7,-1,0,1,-5,0
0,-3,9,4,-3,-1,-6,-1,0
8,16,-3,-5,0,-1,13,1,0
-32,-15,-3,-2,1,-2,-7,-2,0
-6,-29,-1,-1,-1,0,0,2,0
-8,10,-5,4,0,-1,-3,-5,0
0,16,-4,-7,-5,-6,-13,-9,0
-37,-11,-14,-10,-7,-2,0,-5,0
-6,-1,1,1,3,0,-1,-2,0
5,-22,-6,-33,-1,1,7,5,0
12,-6,12,35,1,1,3,5,0
4,7,3,-2,-1,0,1,1,0
2,3,1,-1,1,2,-10,0,0
7,-6,-9,-2,-1,-3,-12,1,0
-1,3,-4,-11,0,0,-4,-1,0
18,1,8,5,-2,-1,2,-2,0
-9,3,3,-2,-4,-2,3,3,0
7,2,0,5,0,1,0,0,0
1,-11,-5,-8,1,-3,-8,-2,0
42,10,-1,4,-1,4,8,0,0
-91,-6,-2,-6,0,-4,-1,-4,0
-17,-5,-6,3,-2,-1,-1,-4,0
-12,-7,0,-5,-2,-4,-2,-1,0
8,-9,-6,-16,3,0,-6,0,0
40,26,4,18,1,-1,-2,5,0
-1,1,2,6,0,3,10,-2,0
3,-1,-1,-8,4,13,32,5,0
-2,10,4,5,-3,-8,-28,2,0
1,11,1,-17,-2,2,8,-4,0
-7,-20,0,15,-1,-2,-13,-4,0
12,0,0,-7,-2,-4,-4,-3,0
-10,5,-6,0,0,0,10,0,0
22,-3,2,4,1,-1,-2,0,0
-4,2,-6,-10,1,2,-1,-1,0
-6,8,0,-6,-2,1,-6,-5,0
-6,-7,0,8,-2,-1,9,-4,0
6,-3,1,-2,3,0,-5,-1,0
12,5,-2,2,-1,-3,-3,1,0
-18,-12,-5,-5,-2,0,8,-2,0
-5,-1,-3,-2,1,-2,-5,-1,0
20,-12,-3,0,-4,0,4,3,0
23,20,7,5,2,1,7,6,0
26,1,-8,-8,-1,-4,-10,-4,0
-5,-7,7,10,-1,2,-19,-2,0
5,17,-7,-4,-2,-2,-1,-2,0
-37,-21,2,1,-1,3,1,-4,0
-1,-5,-6,-10,-5,-5,-8,0,0
-12,-7,-3,11,3,-1,8,-1,0
11,-2,5,-3,-1,-1,0,2,0
-21,-4,-3,2,-1,-3,-5,-3,0
0,-6,-4,8,1,-1,0,-1,0
4,10,10,-1,-2,-1,2,-4,0
-27,-6,-12,-6,0,0,-2,-1,0
12,2,1,-3,-5,-1,3,1,0
-18,-5,3,1,2,5,-1,2,0
19,-8,-4,-3,-2,-7,2,1,0
6,4,0,0,-1,-4,-1,-1,0
-8,-8,-4,-4,0,-5,-3,-4,0
12,6,4,1,-1,1,2,1,0
-15,-1,-3,-6,-2,1,-7,-1,0
13,-5,-5,-20,-3,2,10,0,0
4,-1,5,17,-1,1,0,0,0
4,5,4,5,3,-4,-17,0,0
9,19,5,1,-1,3,18,5,0
13,-22,-7,-5,-2,-2,1,0,0
-19,19,2,6,0,-3,-5,-4,0
-2,15,0,-5,-2,0,-4,-3,0
4,-4,-2,-2,0,-1,-1,-1,0
-6,1,1,4,0,-1,2,1,0
3,-13,-2,-3,1,0,2,5,0
-1,2,2,9,1,-1,-5,-2,0
-28,-33,-8,-8,-2,1,5,-3,0
18,11,-2,2,-6,-7,-11,-2,0
0,-4,0,-9,-1,-2,-13,-4,0
-4,12,1,-5,0,-1,13,2,0
13,-11,-2,1,0,-1,-2,-1,0
-12,-5,1,-2,1,2,-11,-3,0
-5,-1,-5,-15,-3,-1,8,0,0
24,-3,8,14,1,0,2,4,0
-66,-5,-3,-21,-1,-1,-1,-7,0
-7,-8,-1,19,-1,2,2,-2,0
52,17,-1,-1,6,0,0,0,0
-50,17,0,-7,-1,-1,-6,-4,0
7,-10,-10,-13,-3,-1,-2,3,0
-7,4,1,5,1,-2,-1,-2,0
-14,-15,3,8,0,6,19,3,0
27,-11,-2,-2,-4,-6,-13,-1,0
5,14,3,7,4,-1,6,-1,0
-8,-2,-6,-7,1,2,17,-4,0
-22,-7,1,3,-2,-5,-23,2,0
8,-6,0,2,1,1,-2,1,0
30,20,-4,-2,-6,-3,-2,-1,0
10,6,-2,-1,-4,-2,-6,1,0
16,0,-5,-4,-3,2,4,-1,0
-46,-21,4,-2,-2,-1,2,-2,0
9,-15,-6,3,0,-2,-11,-2,0
-32,-16,-3,-5,-1,-1,-4,-6,0
-24,-2,-4,-2,-1,0,0,-8,0
18,5,-3,4,-1,-3,4,3,0
4,7,5,10,2,2,2,0,0
10,29,2,-7,4,1,-12,1,0
2,-22,5,14,-3,-3,18,1,0
-17,-8,-5,-8,0,0,-2,-3,0
32,12,-1,-5,-4,-2,0,2,0
-27,-17,-2,-5,-4,-1,-4,-1,0
6,30,1,-2,1,2,-8,0,0
17,0,-6,-2,1,-9,-1,-2,0
-12,-7,6,5,0,1,0,3,0
38,19,1,3,0,-2,-2,2,0
6,-5,1,-6,0,2,4,5,0
-56,-25,-9,-15,-5,2,2,-7,0
-1,-7,-4,15,0,-4,-7,-6,0
9,-7,3,1,-1,0,5,6,0
9,9,-3,-34,0,1,3,-1,0
27,14,6,23,4,7,-9,4,0
-24,-3,-5,-5,1,-6,-3,-1,0
43,-13,3,-2,-4,8,6,-1,0
-16,-10,-3,0,-2,-9,-7,-1,0
1,-2,-7,-9,-4,1,5,-5,0
-1,28,0,-9,-6,-4,-6,-2,0
-3,-6,-3,3,4,2,3,-2,0
19,3,8,8,3,0,7,0,0
0,-13,0,0,-2,-1,0,1,0
-9,-8,3,13,2,3,3,-2,0
3,7,-5,-8,-5,-2,2,1,0
-18,-13,-10,-6,-5,-4,-9,-1,0
-7,-2,5,0,-1,0,-1,-2,0
5,6,-3,-9,-3,0,3,-1,0
-19,-11,2,7,1,-3,-6,-1,0
9,5,0,2,-1,-3,-12,-1,0
14,1,-6,-7,-1,3,6,3,0
5,-7,6,7,-1,-4,11,3,0
-17,5,1,1,0,-3,-6,-2,0
10,6,-5,2,-2,3,0,1,0
-14,0,0,1,-6,-4,-1,-5,0
-3,-7,-3,-9,-2,4,0,5,0
-5,-1,-4,2,0,-2,-3,-4,0
10,1,0,-4,0,0,12,0,0
16,8,2,-8,2,0,-10,1,0
-7,-3,3,13,2,-3,-7,-3,0
52,5,6,8,1,2,8,6,0
-27,0,-7,-7,-2,0,-10,-9,0
-11,-17,-8,-4,-3,5,15,-3,0
-5,-3,-1,1,-1,-5,-9,-3,0
-1,3,5,-4,1,-2,-4,-1,0
19,2,1,6,0,1,-1,2,0
1,1,-2,0,2,0,9,2,0
5,3,-7,-17,-6,1,3,-2,0
8,-3,0,16,-2,-1,-10,1,0
-26,-3,9,3,2,1,-3,1,0
-31,3,-5,5,0,-7,5,-7,0
11,4,-5,-5,1,1,-6,1,0
-17,6,-6,-5,-2,-1,4,-4,0
12,-9,4,-16,-4,-2,0,0,0
1,1,-1,9,0,-5,-7,5,0
6,-5,1,1,3,4,6,4,0
3,6,-5,-11,-2,-2,2,-3,0
29,-13,-2,-7,-5,-2,-4,-1,0
-21,-13,1,7,3,5,9,-1,0
-12,25,-3,1,0,-7,-13,-5,0
-18,-4,-2,-4,-1,-5,0,-2,0
1,9,-2,2,-3,0,2,-1,0
18,-4,5,-3,0,4,6,1,0
-4,-11,-5,2,-1,1,-9,-1,0
-7,3,4,-4,-1,-1,-8,0,0
8,3,-1,9,-1,-4,-7,3,0
-13,-11,-5,-9,-3,-5,-10,-6,0
-37,1,-1,2,-2,-1,3,-8,0
-19,-11,-6,-6,-2,-5,0,-2,0
-13,-6,2,12,3,3,9,-2,0
34,19,-4,-33,-3,3,-3,6,0
7,-22,7,28,0,2,4,3,0
-3,0,3,-13,-2,-2,-6,-2,0
-13,-4,-4,6,-1,-2,-7,-1,0
10,3,0,3,-1,3,2,1,0
7,-4,0,-11,0,-5,8,0,0
24,-2,3,9,8,-4,3,7,0
-65,-10,-8,-5,-6,-5,-7,-9,0
9,11,-2,-3,-2,-3,-10,-2,0
1,-18,-9,-12,-4,1,-3,-2,0
-9,-6,-4,-5,-1,3,6,-2,0
23,7,12,19,6,2,-9,1,0
-4,-1,-1,-1,-2,-1,-3,-2,0
-10,1,3,4,-3,-2,15,1,0
31,4,7,-4,2,3,4,6,0
-35,3,-9,-8,-2,-3,-2,-6,0
18,-2,1,13,1,3,-2,1,0
-13,-4,7,-1,1,0,-7,-3,0
-11,-9,-12,-20,-5,-1,-1,-4,0
12,5,-3,10,3,-1,11,1,0
8,2,5,4,0,-1,-2,1,0
21,-3,-2,-7,1,6,-2,-2,0
-31,7,3,5,1,-14,-4,-4,0
-2,10,-6,-2,-6,6,10,-4,0
13,-6,6,4,-1,-6,-14,0,0
24,-10,-8,-11,-1,0,9,-1,0
-39,-13,-4,10,-3,3,-11,-3,0
20,0,5,-5,-1,-2,-14,-2,0
-9,6,-7,-5,0,-1,4,1,0
0,3,4,10,-1,0,-2,1,0
8,-3,1,8,3,4,5,0,0
18,9,4,6,2,-4,10,5,0
10,2,4,-10,0,7,9,5,0
-29,2,-10,-9,-4,-11,-26,-7,0
-1,2,-9,0,-1,-1,-1,-3,0
-5,-6,1,-14,1,-1,-3,-1,0
6,0,0,16,-3,-2,1,-1,0
8,8,4,-4,-4,4,5,2,0
4,2,2,2,-1,-3,-3,0,0
19,0,-1,-7,-1,1,-3,6,0
-46,-17,-5,-3,1,-5,6,-9,0
1,14,2,0,3,8,24,2,0
20,4,4,-1,-5,-6,-30,0,0
-34,-6,-4,11,-2,-8,-4,-2,0
15,3,0,-6,0,-2,-5,0,0
-10,11,-2,9,0,-3,-10,-2,0
-22,-2,11,-3,0,8,18,-1,0
17,-3,-6,-2,1,2,2,1,0
-2,-2,0,16,-1,-2,-4,1,0
0,-12,-3,-11,-2,1,-2,0,0
21,6,-2,3,1,2,6,1,0
8,-6,-2,-3,-1,-3,-1,-2,0
-33,-5,-2,-10,-5,-2,-5,-5,0
1,-14,-2,0,-1,-1,0,-3,0
-8,6,-6,5,3,1,0,-2,0
1,-2,2,-5,-4,-3,-10,-2,0
11,2,-1,-14,-3,-4,5,2,0
-3,-2,-5,-5,0,-3,7,1,0
-8,-4,4,15,-2,2,12,1,0
17,2,-1,-2,3,-3,-29,-2,0
25,20,1,3,5,6,5,10,0
-67,-22,6,-4,-3,-6,-12,-12,0
-1,-14,-9,-3,-3,2,-1,-2,0
-6,3,-5,1,-2,-1,2,-3,0
15,-9,-2,2,-1,1,0,2,0
15,20,-2,-15,-3,-11,-13,2,0
-12,1,-2,11,-2,-2,3,-1,0
-4,4,4,1,2,3,1,0,0
1,-5,2,0,3,3,11,1,0
0,1,3,3,0,6,7,0,0
15,3,0,0,0,-4,-3,-2,0
-32,-24,-5,-6,-4,-1,8,-2,0
-9,-18,-6,-1,-5,-5,-11,-8,0
35,24,3,3,2,5,3,5,0
-7,21,-6,-9,-3,-3,-4,1,0
23,7,1,-2,-1,1,9,2,0
-14,-5,4,3,-1,-1,11,-2,0
-9,-12,0,3,-1,-1,-7,2,0
5,-6,-4,-19,-3,-1,-3,3,0
8,6,9,14,-1,3,11,1,0
1,6,0,-3,-3,-6,-6,-3,0
-2,-21,-3,-19,-7,-3,-2,-8,0
-9,-3,-5,11,1,1,5,-1,0
2,5,-3,-6,1,2,4,3,0
-15,-3,-4,-3,0,-4,-11,-3,0
14,2,1,5,2,2,-9,3,0
-10,-8,1,-4,0,8,15,-3,0
34,-1,1,-2,-3,-9,-6,3,0
-28,10,3,2,1,-3,-2,2,0
-3,1,-3,-6,2,3,1,0,0
0,-19,2,10,-2,-3,-10,-1,0
6,24,-5,-4,-1,5,10,-1,0
18,13,4,0,-1,1,-7,1,0
-25,-17,-1,0,-5,0,2,-1,0
9,17,2,-1,4,0,-16,-4,0
6,-22,0,5,0,-1,-1,-3,0
-33,-30,-1,2,1,-1,-2,-7,0
4,30,-10,-1,-3,1,8,1,0
-13,-31,-8,-3,-8,-5,1,-6,0
21,6,4,5,-2,-2,-7,4,0
-24,-2,2,1,1,6,-8,0,0
24,-2,3,13,3,-6,2,4,0
0,5,-1,-9,-1,-1,0,3,0
-12,-4,1,-7,-1,0,2,-2,0
8,-2,-5,2,-5,-4,-7,-1,0
-1,2,0,-1,2,6,17,1,0
5,9,-1,-2,-1,-13,-26,2,0
-16,-9,-3,-4,-2,-2,1,-3,0
23,13,-4,-6,-5,3,1,1,0
-18,-11,-1,-3,3,-1,-9,-8,0
18,13,7,10,2,6,12,2,0
-21,-10,0,-5,-1,2,2,-4,0
-1,-1,-9,0,-2,-5,-17,-1,0
13,7,-1,-3,-6,-4,-4,-2,0
-4,-4,1,3,2,5,10,3,0
12,13,5,13,4,-2,10,2,0
-42,-36,-1,-1,0,0,9,-5,0
20,19,-2,1,-3,-2,-14,1,0
-5,-13,-7,-10,-4,-2,-1,-4,0
-2,2,-7,-12,-2,1,-5,-2,0
-2,-3,-1,-3,-2,-2,2,0,0
-7,-9,2,10,2,1,2,-1,0
12,18,-3,-8,-5,-5,-5,-1,0
2,-3,0,-2,0,-3,0,1,0
1,3,3,0,0,2,1,1,0
13,-10,4,9,3,2,0,3,0
15,5,-1,0,-2,2,10,1,0
-2,-4,-2,-6,-2,-2,-12,-1,0
-26,9,1,6,-4,4,20,-3,0
-3,-10,-5,-3,2,-8,-21,-6,0
-9,-15,5,1,3,3,3,2,0
-8,9,-5,3,-1,0,5,-1,0
17,6,-5,-12,-2,0,-8,-1,0
-1,0,-6,-1,-5,-1,14,2,0
5,-18,3,3,-3,1,-6,0,0
19,-7,0,-12,2,-1,-8,3,0
-30,13,-3,23,-2,-3,-6,-9,0
6,2,3,4,4,10,17,0,0
-11,-5,-4,-10,-2,-7,-31,-3,0
0,-7,-1,8,-7,-3,2,-3,0
37,0,6,-8,2,-1,-2,5,0
-18,18,0,0,-1,3,-3,1,0
27,11,1,1,-1,-4,11,3,0
-68,-16,-9,-13,-4,-2,-4,-13,0
27,1,-6,-1,0,-5,-5,2,0
-19,-24,7,3,-2,-4,-1,-2,0
-6,7,-4,-8,-1,7,7,-2,0
-4,3,3,4,3,3,4,3,0
-1,1,5,6,1,-2,11,-5,0
8,-1,-6,-5,2,-6,-19,3,0
-9,-3,-5,-4,-5,0,15,1,0
6,-5,0,2,2,-4,-8,-2,0
27,6,-2,-2,0,3,10,0,0
-43,-23,0,-4,-2,2,5,-3,0
-5,10,-3,-15,-3,-3,-5,-2,0
-14,5,-2,17,1,0,1,-3,0
42,-5,1,-11,-2,0,-3,2,0
-13,17,5,-9,-2,-3,-8,1,0
-2,4,-4,12,3,-3,-1,-5,0
-11,-10,2,-9,-1,4,11,-1,0
-7,2,-2,2,0,4,1,2,0
52,12,-2,-2,-3,-6,6,2,0
-15,-6,0,-4,0,-5,-13,-3,0
-3,14,-1,-2,-1,0,-9,0,0
-27,-18,0,2,-1,-4,-2,2,0
14,27,4,-1,0,4,7,1,0
3,-6,-6,-1,0,4,4,-2,0
-2,0,-6,2,-3,-4,-3,-3,0
8,-1,4,-4,-2,0,0,0,0
-7,-9,-4,7,-2,1,-2,-3,0
-2,0,1,3,1,-2,-2,-3,0
6,4,-2,2,0,1,2,2,0
-5,-7,-2,0,2,2,1,-3,0
5,-5,-1,-1,-5,-13,-18,0,0
-22,-1,-1,-2,-6,-2,5,-2,0
21,-23,-2,-3,1,0,14,4,0
-19,20,2,2,2,0,-8,-2,0
13,-7,-5,-1,-3,1,-2,-4,0
-8,-6,3,2,0,0,6,2,0
9,19,1,-1,-2,0,0,2,0
-6,-5,-5,-9,-1,-1,3,-5,0
2,-7,5,0,0,-3,10,-2,0
-13,9,-2,6,4,-1,5,2,0
0,-10,-1,10,-2,-1,-3,-2,0
16,8,1,4,-1,1,2,4,0
17,-10,-5,-5,-2,2,1,1,0
1,-7,1,-3,-1,3,-1,-1,0
18,15,-2,-9,-3,-4,0,-1,0
-30,-2,-13,-11,-4,3,-6,-4,0
1,-5,8,16,-4,-12,-17,2,0
7,-3,6,3,2,0,1,1,0
-18,1,-5,-8,2,4,-2,-5,0
37,-3,5,5,-2,-3,12,4,0
-33,13,-6,-5,0,3,-1,-4,0
1,10,-4,-2,-3,-2,-7,-5,0
10,-9,-1,0,-2,-2,-4,0,0
9,-5,-4,-8,-3,-2,-4,-1,0
0,-2,0,5,2,1,-1,-1,0
6,-6,7,23,8,0,-14,3,0
-52,-4,-5,-4,-7,7,22,-3,0
8,-5,7,-3,2,-6,-11,4,0
-9,12,-2,-1,-2,0,0,-1,0
19,0,-6,-12,-2,1,-3,1,0
6,-4,3,5,2,-5,-8,1,0
14,-1,1,2,-2,3,5,-1,0
-7,-6,-6,-11,-7,-5,1,-4,0
-1,1,1,2,2,5,-2,1,0
13,-1,4,1,1,-6,14,6,0
-5,15,4,2,-1,-3,-19,-3,0
-3,2,-6,-5,2,1,0,-5,0
-28,-7,-2,-6,-2,-1,1,-2,0
-17,-12,-2,2,-2,-2,-8,-3,0
6,6,2,4,0,-3,-4,1,0
13,-10,-3,-1,4,4,3,2,0
-39,2,-4,-7,-4,-5,3,-5,0
34,6,1,-13,-1,4,-5,1,0
-13,-3,1,-5,2,-8,-9,-2,0
-29,-11,-4,22,-2,-1,3,-2,0
16,8,2,3,0,2,7,-1,0
-6,15,-5,-5,-4,-1,-8,-4,0
14,-3,-3,-9,-3,1,2,1,0
8,-5,2,-3,3,5,15,4,0
3,-7,-3,-7,-3,-12,-32,-3,0
25,2,1,7,2,1,-3,4,0
-19,-4,1,-1,1,6,-11,-1,0
6,5,3,-3,0,-10,9,-3,0
11,0,1,-11,-1,5,25,1,0
-16,-9,-4,13,-2,-4,-18,-4,0
11,4,-5,1,1,2,3,2,0
-12,-5,-2,-6,-4,2,-5,-1,0
-1,-18,0,-5,3,2,1,-2,0
5,3,0,-2,-2,-3,0,-1,0
-1,0,3,21,1,-4,-5,-2,0
29,10,7,3,4,5,-4,5,0
-68,1,-6,-10,-3,-8,1,-2,0
0,-1,2,12,-3,2,0,-6,0
-21,5,-6,-10,-4,-5,-3,-4,0
-13,-6,-5,-7,-3,-2,7,-4,0
28,-1,5,10,1,5,-6,5,0
0,-6,-1,-14,2,-1,-2,-1,0
-9,5,-4,0,-3,-2,2,1,0
18,-2,3,2,3,2,-6,6,0
10,0,1,-1,-2,5,13,0,0
-13,-1,-1,1,-1,-4,1,-3,0
35,-6,0,0,-2,-9,-24,3,0
-7,-13,3,-1,-2,-1,15,2,0
6,18,-1,3,-4,4,-13,-2,0
-41,-3,-12,-8,-2,-5,1,-10,0
-24,-15,-14,-26,-3,-4,0,-9,0
21,-1,2,14,-1,-2,-4,1,0
2,-14,11,-3,3,1,1,4,0
26,8,2,12,4,5,1,5,0
2,4,-2,3,0,2,13,1,0
-6,5,1,-8,0,-1,-7,-3,0
10,-13,-6,4,-3,-5,1,-5,0
-1,12,4,-14,-5,3,1,5,0
-1,-4,-5,3,4,6,21,-3,0
-30,-11,-13,-10,-5,-12,-26,-9,0
5,11,-4,-8,-1,6,7,-2,0
2,-13,2,3,-1,-9,-30,-2,0
2,-1,7,12,3,-2,3,5,0
11,11,3,2,-2,6,5,1,0
8,0,-4,-6,-2,-4,-3,-2,0
10,-2,0,-1,3,4,-2,2,0
-7,8,2,4,-1,7,17,-5,0
14,-1,-2,-5,-1,-8,-12,-1,0
-24,-21,-4,-3,-4,-4,3,-2,0
-3,-5,-7,-12,-2,2,6,0,0
1,11,15,23,1,1,-5,0,0
5,24,-3,-9,-2,3,8,-2,0
1,-6,-2,18,0,0,0,1,0
17,2,1,-4,1,-1,7,2,0
-38,-19,-12,-23,-3,-4,-10,-9,0
1,-18,-1,12,-1,3,-2,-2,0
13,12,5,-1,-1,-6,-13,4,0
-5,-2,1,0,-1,1,12,-2,0
8,5,-7,-5,-2,-1,5,-2,0
-6,14,1,-4,-3,8,16,2,0
5,-10,5,-1,5,-10,-19,-3,0
-2,-4,-2,8,0,-1,5,1,0
9,-5,-2,-3,-1,-8,-21,1,0
-12,8,3,-3,-4,1,16,-1,0
9,6,-4,-2,-5,-2,-2,-1,0
1,-1,-1,-2,1,3,6,-3,0
6,-2,-3,4,-1,2,4,0,0
-8,-1,3,-8,1,0,-11,-1,0
9,-2,-4,-14,-2,2,5,-2,0
-35,-8,3,24,2,1,-1,-1,0
3,-21,-5,-5,-2,2,-9,-5,0
22,5,-5,-5,-1,-5,-3,9,0
-19,6,-2,4,-2,-3,1,-10,0
3,-2,-7,-12,-5,-3,-2,0,0
6,25,4,-14,-2,-1,6,3,0
-11,-7,0,-2,1,-1,-2,-1,0
-4,1,2,13,0,1,-1,2,0
29,0,1,3,1,0,1,4,0
-29,-5,1,-2,-3,-4,-5,-4,0
11,5,-5,-5,-2,1,2,-3,0
8,-15,-1,2,0,7,21,2,0
-12,-7,-2,-8,-1,-8,-16,-1,0
19,21,0,1,-2,6,16,3,0
-6,-8,-3,0,0,-12,-40,-4,0
15,6,-3,4,0,0,-12,2,0
-45,-6,6,-8,-2,3,18,-3,0
8,-2,0,6,3,-8,-4,3,0
-7,-3,-2,14,0,5,4,-5,0
-9,4,2,-7,-1,0,1,1,0
6,-2,-2,-4,-3,-3,-8,0,0
16,-8,1,-1,-3,2,1,2,0
7,0,-2,-4,3,2,12,1,0
1,22,1,-1,-1,-3,-4,1,0
12,-2,-5,-4,-4,-1,0,-4,0
-21,-12,-7,-19,-1,-2,-7,-4,0
28,-4,4,20,4,0,14,2,0
-61,-24,-4,-4,-2,-2,-13,-5,0
14,6,1,-17,1,0,-4,0,0
-5,-9,-2,17,-1,1,-6,1,0
-24,-10,3,-8,-4,1,15,0,0
16,15,0,-4,-1,-3,-5,0,0
7,11,1,6,3,-2,-7,-2,0
-13,-9,1,-1,-1,3,5,-2,0
-11,-6,-7,-5,-3,-5,-1,-1,0
3,3,-4,3,0,1,4,-1,0
1,-5,6,-11,-1,3,4,-1,0
10,7,-1,9,4,-5,-18,-1,0
-8,-5,4,11,0,0,-8,-2,0
10,-1,-1,-6,-1,1,7,2,0
3,0,-3,4,-3,-3,-4,3,0
2,4,-2,-8,-4,2,11,3,0
-10,-17,-6,-8,-1,-1,-10,-1,0
6,-2,0,5,0,-3,-1,0,0
-13,5,-2,3,0,3,9,2,0
1,-8,-2,-1,-3,1,3,-4,0
-22,-5,-2,-3,-2,-3,-7,0,0
8,9,-3,-5,-2,-1,0,-5,0
0,-2,-2,4,-4,2,6,1,0
4,6,7,2,2,-3,10,0,0
15,11,-3,-8,-3,-5,-10,0,0
1,-9,0,5,-1,2,13,1,0
-3,-2,-5,-18,-3,-2,-13,-7,0
-5,-2,3,10,-1,2,-24,2,0
8,5,2,-2,3,2,1,2,0
15,20,1,-1,-2,5,30,-1,0
-25,-5,3,2,-2,-9,-17,-1,0
-1,-11,-7,-2,-4,3,12,-1,0
5,2,8,-3,0,1,-4,-1,0
-3,-20,-1,14,7,0,-8,4,0
14,36,-6,2,-2,1,5,-2,0
0,3,1,-7,0,-1,-4,0,0
-3,-12,-5,-1,-3,3,-7,-4,0
1,14,2,1,-2,-8,1,0,0
-2,-19,1,2,-1,-5,2,-1,0
-5,-7,-1,-1,-3,-5,-3,-1,0
19,15,-5,-3,-2,-2,-14,-5,0
-40,-27,-5,-14,0,9,2,-4,0
15,3,-3,7,2,-4,-3,2,0
-2,-3,-1,1,-3,-13,-20,-4,0
9,4,6,7,1,3,13,2,0
17,2,4,5,-4,-2,-7,2,0
-28,-5,-4,-2,2,4,12,-4,0
10,8,-4,-3,-1,8,26,0,0
-5,-3,-3,-8,-4,-10,-29,-7,3
10,3,-3,2,-1,-3,0,3,3
14,-14,4,6,-2,-2,6,4,3
-11,6,7,0,2,1,4,0,3
-18,-4,-7,-18,1,4,7,-3,3
10,12,4,-1,-1,1,-11,2,3
-4,5,3,-1,1,0,9,2,3
16,-6,-4,11,2,-1,-10,0,3
-8,-11,-1,-1,4,9,14,-3,3
-16,8,-9,-9,-5,-13,-16,-6,3
-15,-13,-4,-6,-2,-2,-10,0,3
-4,-1,1,-7,-1,-3,12,-1,3
6,-3,5,11,1,2,-4,5,3
15,-18,0,0,1,4,8,-1,3
5,7,0,0,-3,6,0,-2,3
10,8,-5,-6,-3,-9,2,0,3
-9,3,-5,3,-3,-3,-3,-1,3
3,-5,-1,-1,0,-1,-4,-3,3
2,5,0,-2,-2,-1,-6,-1,3
-7,-11,-2,1,0,4,4,0,3
3,5,-1,-6,-1,-3,-1,0,3
-10,3,-5,-7,-4,0,7,-6,3
0,-3,2,4,-3,-4,-1,-5,3
4,0,0,-9,1,4,-5,1,3
-12,-7,8,24,8,-4,14,3,3
7,-17,3,-5,1,8,0,4,3
10,6,-5,-7,-1,-7,-20,-4,3
-3,21,-1,1,-2,-2,-2,-2,3
1,9,-5,-10,-5,5,10,-4,3
11,-13,-3,5,-3,-2,-8,3,3
12,-3,3,-2,3,-5,-12,1,3
-10,-4,-7,-8,-1,4,9,-3,3
-9,-9,-4,-11,-4,-4,8,-6,3
-6,12,3,8,2,1,-6,-1,3
15,-19,4,-3,-2,5,-1,6,3
-7,10,0,5,0,-1,-9,-4,3
4,-3,-3,1,0,1,9,-2,3
-1,10,-2,-9,-4,0,4,-5,3
13,9,0,5,0,-1,0,2,3
-34,-12,1,-6,-1,4,7,-3,3
14,-8,-2,10,-2,-3,-11,0,3
-25,3,6,-1,2,-8,-17,-2,3
-2,17,0,8,6,4,11,-3,3
2,-18,-2,-2,-2,-1,7,2,3
-7,11,-2,-3,-1,0,-5,-1,3
15,-16,4,-3,0,-1,4,1,3
-28,-9,-11,-1,-4,2,8,-5,3
16,16,-4,-7,-5,-6,-6,0,3
-13,4,-2,0,-1,-5,-8,-3,3
21,-8,-1,4,4,3,-11,5,3
-17,-5,9,-4,-3,4,18,-4,3
5,-7,-3,4,2,0,-5,-2,3
1,12,1,-3,-2,5,3,7,3
21,4,-4,-1,-2,-11,2,0,3
-58,-7,-1,1,0,-4,-2,-4,3
-31,-21,-5,3,-4,1,-16,-7,3
-4,12,-1,0,1,8,18,-1,3
6,13,4,-3,0,-5,-27,0,3
27,-3,-4,1,-2,-2,-4,4,3
-7,-6,-5,-36,-2,-3,-1,-1,3
0,-9,1,27,1,-4,1,-1,3
-21,-1,0,-1,0,3,2,-6,3
18,-3,-1,-1,-1,-3,0,-1,3
17,12,4,3,-5,5,15,7,3
-3,-12,-6,-18,0,-4,-7,-4,3
5,8,-8,3,5,2,9,-1,3
-3,-3,13,1,-1,-3,-10,2,3
0,-5,5,15,2,-3,0,-1,3
1,6,-6,-7,-4,-3,-3,-1,3
-17,-27,-10,-3,-5,1,2,-3,3
4,11,-3,-8,2,1,-1,-4,3
15,19,-1,-1,-2,-2,1,1,3
-10,-2,-2,5,-14,-6,-5,-3,3
2,-4,-1,-30,-53,-4,4,0,3
13,-5,2,23,-6,5,1,3,3
-22,-8,3,12,67,-3,-1,-2,3
4,2,5,-1,-30,0,-5,0,3
-4,6,-4,-2,71,11,7,-1,3
8,-3,-2,8,82,1,-2,-3,3
6,2,0,2,-90,-3,-2,1,3
-21,-23,-4,-18,-15,-17,-1,-2,3
-10,3,-4,-4,-19,8,0,-3,3
9,8,-5,-11,38,-8,-1,3,3
8,2,10,27,70,9,-3,-3,3
-1,-3,8,5,-28,10,4,5,3
23,13,4,0,-57,-10,0,-1,3
-46,-36,-1,-8,-29,-6,-6,-6,3
6,-1,-15,-31,-14,-3,-2,-1,3
24,4,-4,9,1,0,-4,-1,3
-30,-5,1,17,14,-6,-2,-3,3
33,23,14,11,7,5,4,3,3
-25,-16,8,5,-9,-2,1,-2,3
19,-7,-8,-15,7,0,-5,-3,3
-12,13,-7,-3,26,-2,1,-1,3
5,-9,-9,-10,-28,0,-2,-3,3
9,4,2,-18,-25,-4,0,2,3
5,8,2,13,-61,6,2,2,3
8,-7,4,-5,82,-16,1,1,3
-7,2,-3,8,77,9,-1,-2,3
16,10,-3,9,-35,11,2,6,3
-20,-9,3,1,71,10,-1,-1,3
-6,-12,-8,-22,-75,-9,-2,-4,3
10,36,-3,-20,-128,-43,0,1,3
2,-14,3,24,127,20,-12,-7,3
0,11,25,29,-34,20,6,4,3
-13,-13,-6,10,-83,12,5,2,3
10,-2,-11,-21,-44,-4,-1,-3,3
4,6,-7,-21,-9,-36,-1,-2,3
-8,-18,-11,-17,-10,-5,-2,-1,3
12,-2,-14,3,-71,0,0,4,3
-37,6,18,7,-42,-7,-6,-9,3
-1,1,27,21,56,1,-2,1,3
-4,-12,7,4,-11,26,-1,-1,3
3,12,1,-5,38,-11,-2,0,3
16,-5,-2,-11,-128,8,1,3,3
-25,-23,-13,-13,63,-16,-2,-4,3
34,23,15,6,60,14,5,8,3
1,-31,-22,-6,-25,2,-4,-7,3
-41,2,-10,1,25,13,-2,-10,3
12,10,5,2,-77,-9,3,5,3
17,-5,-10,-7,-32,-32,-4,0,3
-7,-24,-15,-3,47,18,0,-5,3
12,1,3,6,87,5,0,0,3
-17,-40,-32,10,33,18,2,-1,3
34,57,20,0,-5,0,1,3,3
-51,-11,29,4,-81,11,0,2,3
-10,-21,-19,-7,120,-18,-8,-3,3
54,-16,-13,-5,-128,2,8,10,3
35,76,-3,-7,-2,-10,2,11,3
-62,-51,-12,-19,98,-30,-24,-31,3
23,-18,-20,5,-59,5,10,9,3
2,8,21,-4,-61,12,-3,-2,3
-34,-46,-14,-16,-42,-12,-1,0,3
37,-35,-10,6,-16,-11,9,12,3
16,77,26,11,-40,8,-1,3,3
12,48,19,-14,25,-15,-5,0,3
-56,-28,-31,-9,-22,-8,-7,-20,3
-6,3,39,20,88,3,6,8,3
0,-91,-44,-14,12,10,-1,0,3
25,103,50,31,-46,13,5,5,3
-53,-59,28,-4,-32,-8,-12,-17,3
16,43,-17,-11,31,-21,-6,-8,3
-14,-23,-6,18,38,35,6,5,3
16,11,2,-5,58,-4,3,5,3
-1,-17,15,-2,78,20,0,-2,3
10,35,0,3,-51,6,3,-3,3
-29,-57,-21,-15,-52,-13,-1,1,3
-59,-46,-51,-2,-5,-6,-8,-19,3
24,19,19,37,35,6,10,13,3
-15,27,10,-4,-70,6,-7,-8,3
24,75,21,-17,46,-6,-4,-1,3
-25,-50,-18,-24,21,-1,-4,-1,3
19,-18,-29,-12,-8,-2,0,-21,3
-2,45,14,33,16,3,6,15,3
16,30,39,18,-61,-3,1,-2,3
-39,-29,-9,-8,12,-12,-13,-23,3
-49,-79,-38,-30,-3,-11,-8,-13,3
27,31,-2,-4,-61,15,5,4,3
-5,-25,-2,-13,-54,-13,-10,-13,3
14,13,1,4,86,0,1,6,3
17,42,7,1,-45,-11,1,13,3
-28,-61,-16,-1,-24,4,-1,-9,3
25,6,15,23,-14,-4,7,11,3
-8,-16,27,-25,-74,-17,-7,-7,3
-7,45,-36,-12,30,3,-2,0,3
9,-54,-21,13,-1,-1,0,-1,3
29,39,28,3,35,1,1,3,3
-8,-15,-14,-6,-1,13,-3,-1,3
23,27,-11,-18,2,-37,-1,2,3
-30,33,28,11,-12,-34,-5,-2,3
-4,-7,-21,-14,49,25,-8,-10,3
11,-16,24,25,55,47,6,2,3
4,4,21,39,11,6,6,7,3
46,24,52,0,-75,0,7,12,3
-53,6,-36,-10,11,-25,-6,-11,3
-30,-74,-29,-23,82,-25,-3,-6,3
8,18,-4,-8,-79,11,2,2,3
15,11,-17,-7,67,13,-1,3,3
-7,-53,12,9,-37,-4,-1,-1,3
30,85,-34,-11,-70,-2,7,12,3
6,-6,68,31,36,-2,0,4,3
-27,-37,-49,-24,16,2,-6,-12,3
7,41,0,-23,2,-5,-6,-3,3
20,-58,19,47,-26,-2,3,-2,3
-9,33,-10,-1,14,6,0,-12,3
-8,-31,0,5,21,7,3,5,3
18,-4,14,9,-43,-2,7,8,3
-7,47,18,-7,69,-16,-8,-9,3
22,-12,-15,1,-31,14,7,13,3
17,38,15,-1,79,4,-4,-3,3
-19,-11,-5,-1,-17,-1,1,3,3
34,29,1,-9,-80,-13,2,14,3
-26,-69,-24,-8,-5,-5,-4,-7,3
-15,-57,-21,-7,30,7,4,2,3
38,77,-4,7,13,4,2,7,3
-24,-1,9,12,-50,-2,1,-2,3
6,-22,-23,-39,22,-5,-12,-9,3
-14,20,26,3,-22,4,0,0,3
52,75,11,16,40,8,6,13,3
-24,-44,18,18,-45,2,-6,-12,3
-26,-58,-5,4,-37,2,-1,-5,3
-17,-40,5,-3,70,0,-3,-10,3
-36,-56,-7,-11,13,42,-3,-12,3
41,58,-13,-12,9,-14,2,9,3
21,20,33,9,-21,-39,-10,0,3
10,27,-5,-7,-8,29,4,2,3
2,-46,-12,-4,-39,-38,-1,1,3
-21,1,-5,9,9,10,3,1,3
-8,8,10,0,15,1,-7,-1,3
15,-23,-11,-5,-26,-15,1,6,3
3,8,-6,-11,14,1,-2,-1,3
16,-16,-20,-6,-40,2,6,5,3
-6,-9,-6,14,32,-12,4,8,3
29,37,-27,-22,-6,-5,-11,-7,3
-29,-24,22,33,1,9,6,3,3
-16,40,16,-4,-1,-1,-6,-12,3
7,-17,-4,-15,-19,18,1,-6,3
-2,55,-15,-4,0,-25,-5,1,3
-31,-84,-21,-3,77,21,-7,-12,3
37,29,7,3,-86,-13,3,13,3
-38,25,17,-8,34,24,-1,-4,3
14,-4,8,5,58,-15,-1,1,3
7,20,-13,12,-34,-14,4,7,3
2,-23,10,10,9,29,4,3,3
30,54,18,-2,-30,-12,1,4,3
-14,-19,-14,-15,-30,-12,-2,-1,3
13,56,8,-2,8,8,-1,3,3
-18,-44,-56,-18,16,2,-3,-9,3
9,2,-7,13,2,7,3,-2,3
-10,43,62,24,-7,4,-6,-7,3
5,-22,-18,-10,3,-14,1,7,3
0,-35,13,-11,-16,-10,-3,0,3
-14,27,-31,-26,-6,-28,-8,-7,3
1,-10,-15,5,17,17,6,0,3
0,-7,33,1,-26,-9,-6,-7,3
8,21,7,33,21,13,8,6,3
-46,-35,-14,5,75,1,-4,-13,3
8,-17,16,8,5,32,5,4,3
3,13,1,-16,-35,-11,-1,-7,3
3,-14,-24,-22,31,0,-4,0,3
17,13,11,-2,-80,-30,1,7,3
-2,-33,12,7,9,-4,2,2,3
-20,20,-17,-3,67,-6,-8,-10,3
7,4,8,9,-21,0,2,10,3
-33,-14,0,1,-16,9,-1,-4,3
-8,-33,-22,-6,-25,-5,0,-2,3
3,3,-3,-3,-35,-6,4,5,3
-12,-10,1,3,28,26,1,0,3
50,49,15,9,14,-21,0,8,3
8,-3,8,-1,-17,-9,-4,-4,3
-48,-50,-10,-5,-6,0,-1,-3,3
17,15,2,-1,-7,0,3,-1,3
1,-7,-15,1,22,40,6,5,3
16,13,-1,16,18,11,1,-1,3
16,-19,-6,-6,-84,-28,-9,-2,3
-33,-43,-2,-18,68,2,-5,-2,3
34,19,2,-9,7,-7,1,3,3
-45,-15,-23,2,38,31,1,-8,3
10,2,14,7,17,-9,2,3,3
-2,-15,9,-9,-24,-22,-2,-3,3
11,23,-3,9,-11,13,2,0,3
4,-12,-21,11,-23,-3,6,6,3
-6,18,12,-4,20,1,-2,-4,3
2,36,-1,-6,-32,-4,-2,-4,3
-5,-29,1,-2,29,-10,-3,-2,3
22,52,15,-21,-39,-12,-7,-2,3
6,0,3,8,22,2,1,4,3
-21,6,-3,10,-10,3,-1,-5,3
-11,-33,-6,-1,3,19,2,4,3
14,55,14,-7,-13,-13,3,6,3
8,-75,2,6,27,16,0,-4,3
1,34,4,-6,-26,-13,-7,-7,3
-13,-60,-23,-5,55,20,-3,-4,3
20,9,4,1,-21,-2,4,6,3
-14,4,-16,-12,-41,2,-4,-2,3
13,-9,-11,4,37,4,6,8,3
20,16,10,5,-44,7,3,-12,3
10,-18,1,-4,43,13,-3,0,3
-10,16,0,8,-20,1,0,-1,3
-25,-35,-13,-4,5,-24,1,-8,3
10,48,4,-17,-17,0,-5,-1,3
-7,-24,30,12,-12,-9,3,4,3
-1,14,-27,-5,16,-4,-3,0,3
3,33,11,9,-3,2,-3,0,3
-4,-41,14,10,22,0,-2,0,3
-4,7,-16,-14,-51,-11,-3,-3,3
-9,-10,-4,-16,-42,-3,-3,-4,3
3,-38,-16,5,73,19,1,3,3
1,42,-3,17,-19,-4,4,9,3
-11,-3,-11,-7,19,-16,-10,-18,3
11,8,9,4,32,15,-1,-7,3
3,-1,0,-17,-38,-6,-2,1,3
-18,-33,-33,-15,10,-28,-2,-4,3
11,-1,-2,19,-4,11,6,9,3
4,35,-8,-5,15,-8,0,0,3
-8,-33,-8,12,-8,4,-3,-7,3
-4,6,11,-2,-3,3,0,1,3
7,-16,-9,-10,-29,-18,-7,-3,3
21,10,9,-2,17,-1,5,6,3
-21,77,3,-8,-13,-1,-6,-7,3
-17,-42,-11,8,-3,1,-2,-4,3
-9,-3,0,7,-9,12,2,0,3
-2,-21,11,-8,25,-15,0,14,3
6,20,-1,-8,-26,-6,0,0,3
3,6,1,7,21,13,3,2,3
-12,-40,8,16,19,15,1,-3,3
-33,-2,7,5,43,19,0,0,3
-2,-30,1,-1,-22,0,6,5,3
31,49,-9,-29,-25,-16,-7,-1,3
-15,-31,-12,10,4,5,2,5,3
7,8,13,8,-30,4,0,-4,3
-8,-14,-13,-6,8,1,-3,-6,3
-10,-29,-10,1,14,2,0,-4,3
5,23,3,-2,-3,-6,4,7,3
15,7,10,0,-8,-5,-4,-3,3
13,46,12,-10,1,-8,-5,-6,3
-20,-37,0,-1,-22,-11,-2,-5,3
24,-16,-9,-14,-7,-7,-2,-1,3
-40,28,8,19,4,-4,-2,-8,3
-32,-43,-8,-1,11,2,-3,-1,3
-2,23,6,-1,-21,14,1,-3,3
10,23,-5,-10,-16,6,1,3,3
1,-23,-8,-5,45,-19,-3,-4,3
-6,-19,3,8,-7,-3,0,0,3
5,27,1,1,34,18,-1,-2,3
-7,22,0,-4,2,5,0,-1,3
13,-33,-12,-3,-26,2,1,4,3
14,28,17,10,2,-12,0,-10,3
-19,-29,-9,-4,8,-6,2,-3,3
3,1,-5,-5,8,-2,0,2,3
9,35,3,7,-15,1,2,5,3
24,13,2,0,-6,0,-3,7,3
11,-4,-10,-12,-10,-5,-5,-2,3
-43,6,10,-11,-2,-10,-4,-9,3
-7,0,-15,8,-4,6,0,-4,3
6,-26,-11,10,-32,15,2,-1,3
2,-4,15,2,37,-28,-2,2,3
13,31,5,-6,-21,-20,-7,0,3
-31,-73,-12,-10,15,7,0,-7,3
21,44,1,-1,-5,-2,1,4,3
-16,0,16,10,-32,3,0,1,3
13,30,0,-4,16,22,1,0,3
3,-10,2,-12,-3,-22,-1,-1,3
6,-9,-4,9,3,-33,-4,0,3
6,-6,-7,10,28,-2,0,0,3
-37,-48,-4,4,0,5,1,-5,3
-9,46,5,0,-17,14,0,-2,3
12,3,-2,-5,-2,2,-1,1,3
-11,-16,-19,-19,-13,-8,-6,-6,3
14,-9,8,11,4,-2,1,2,3
0,-14,12,11,11,8,4,3,3
-13,8,1,-10,-12,3,-2,0,3
7,6,-13,-8,5,-12,-6,-1,3
20,5,-5,19,8,3,1,2,3
3,-23,7,5,-30,-5,1,-1,3
3,27,5,-5,36,7,-2,1,3
-6,-29,9,-3,-47,-4,3,-1,3
-6,17,-4,-12,22,5,-6,-4,3
5,-29,-10,-2,-3,-19,0,-3,3
12,20,12,4,37,11,2,3,3
1,41,5,10,8,-4,3,3,3
-33,-7,-4,-9,-23,-11,-4,-7,3
1,-39,2,-11,-4,3,-1,-1,3
0,-12,-23,-10,-11,1,0,0,3
19,8,6,10,11,9,5,5,3
0,-8,7,11,9,12,2,1,3
15,-4,-5,-1,-2,-15,-2,4,3
-5,-4,-18,-7,-14,3,-2,-3,3
6,75,1,0,-29,7,-2,2,3
16,-34,24,-4,52,-9,-1,0,3
-33,25,-18,-10,-13,12,-1,-3,3
-5,-2,9,2,0,-7,-1,-2,3
-11,-16,-4,-1,-34,9,0,-5,3
-4,-2,-7,4,44,-14,1,-1,3
31,13,13,7,12,23,-1,3,3
-15,6,3,-3,-12,-16,-3,-3,3
-6,-2,10,0,1,3,0,0,3
2,-38,-6,-7,-46,-13,-1,-3,3
21,33,-10,-10,16,8,1,0,3
-17,-16,16,10,2,7,1,-1,3
-7,9,-2,6,-5,1,1,-1,3
-18,-60,-10,-7,-11,-3,-5,-1,3
2,26,3,-4,8,-7,-6,-6,3
-8,-13,-7,-17,-29,-6,0,-2,3
13,-11,-13,-8,4,5,0,2,3
0,-11,-22,27,27,7,5,6,3
29,51,8,4,-17,5,3,6,3
-13,23,16,5,9,-2,-1,-2,3
-49,-87,-24,-24,9,-8,-9,-12,3
18,58,4,-11,-50,-12,-5,-3,3
-13,-30,-12,-2,22,24,1,-3,3
11,-38,12,7,6,-7,-1,-1,3
16,62,9,3,50,39,3,2,3
-9,13,-3,-15,-40,-35,-4,-3,3
-7,-6,-4,2,-11,-11,-2,-1,3
9,7,4,0,-18,-12,2,3,3
19,-20,0,1,-2,3,-3,-1,3
-4,21,12,8,10,-12,1,0,3
-31,1,5,10,-3,11,0,-4,3
8,0,-15,-1,4,3,0,5,3
-8,-65,16,-6,-13,-12,-2,-3,3
33,36,-7,-7,1,3,-1,0,3
-10,32,-2,-10,-39,-18,-7,-8,3
-35,-17,-9,-1,39,20,-2,-11,3
4,-13,-8,0,12,-9,1,5,3
-1,-20,10,-5,-9,15,0,-1,3
15,18,-3,13,0,4,-1,6,3
19,-18,3,9,8,-2,0,-1,3
-5,16,21,10,6,-5,3,2,3
-32,-55,-13,-6,7,13,-1,0,3
15,6,1,-14,-7,-4,-3,2,3
14,18,-15,-15,-10,3,0,-1,3
-22,-28,-7,14,26,-3,3,1,3
14,31,-3,2,-15,2,0,1,3
9,10,16,3,17,7,3,6,3
-19,0,1,2,-2,-8,-1,0,3
21,13,20,-4,-61,-5,-4,-2,3
-12,-15,-32,-11,42,2,-2,-6,3
-15,-7,-2,0,-18,-6,0,-2,3
8,-28,-21,-7,3,6,1,1,3
15,42,-2,8,4,7,5,5,3
-7,-5,15,7,-9,5,0,-1,3
-6,-69,-1,-10,-39,-25,-4,-4,3
5,-18,-12,-3,26,9,-2,-5,3
-34,21,4,-4,-2,-2,-1,-4,3
12,15,-3,-4,8,-16,-2,-1,3
-9,-31,-4,5,1,14,3,-1,3
17,71,19,-1,-62,-8,-1,6,3
10,-17,-7,-10,60,-15,-6,-2,3
-8,49,7,6,-9,13,3,0,3
-27,-34,-25,-4,-17,2,0,-6,3
-1,-43,0,1,42,-2,1,2,3
11,4,-20,0,-24,-2,0,0,3
13,37,1,3,-17,-4,0,3,3
36,31,25,-5,23,-2,-3,1,3
-34,-30,-18,-2,-44,7,1,2,3
-9,17,-6,-6,20,-11,-6,-7,3
-21,-40,3,-14,-9,-4,-7,-11,3
4,10,-7,6,15,6,5,4,3
5,3,7,5,-30,16,2,0,3
1,30,19,1,15,-33,-5,2,3
33,-11,-7,8,1,2,2,6,3
-11,-13,1,-2,17,4,-1,0,3
-35,-8,-1,-9,9,3,-5,-9,3
4,-19,-14,0,-21,8,-1,-4,3
15,26,12,-3,-8,-5,-3,-1,3
-20,-15,5,-3,-26,-3,0,-3,3
6,23,3,3,22,2,-1,-2,3
0,-4,-3,-1,19,9,2,2,3
-23,-53,-6,4,-3,3,2,2,3
26,99,2,17,5,0,-1,1,3
1,-9,12,-6,4,-15,-4,-4,3
-18,-39,-11,-6,-9,4,0,-7,3
-5,-11,-6,-6,-7,7,3,-2,3
7,-16,-7,9,22,1,3,3,3
-3,-5,11,9,-5,-2,2,2,3
21,27,7,-6,-5,5,-3,2,3
-21,-30,-19,-3,5,-16,-3,-5,3
-9,10,12,-2,0,0,-2,-3,3
22,25,-12,-13,3,-1,-4,-2,3
21,7,-3,-2,7,17,5,7,3
-31,5,10,12,-53,-15,1,1,3
-3,-13,-2,-3,85,0,-2,2,3
8,-11,2,6,21,15,0,-2,3
-4,-4,-4,-9,-20,-16,-3,-2,3
18,18,12,1,-9,0,0,0,3
-5,5,-16,-11,-24,-4,-1,0,3
-6,-18,2,-7,-4,-9,-2,0,3
13,17,1,19,-4,1,-1,1,3
-13,2,-9,-2,8,4,-2,0,3
2,-21,-3,1,-17,4,0,-2,3
13,13,9,0,9,-2,0,1,3
-7,3,9,2,-11,-13,-2,-5,3
1,-38,-13,-5,24,21,0,-2,3
12,24,15,2,-7,-20,-3,0,3
-4,38,-4,0,-14,3,1,2,3
8,-7,13,12,-5,6,6,8,3
11,-21,-9,-17,-27,-12,-5,0,3
-12,35,-3,5,25,23,-1,-3,3
-28,-16,-18,-4,-1,-14,-1,-4,3
9,17,8,-2,16,0,-4,-4,3
1,-3,5,-8,-3,13,0,-1,3
19,-17,-10,8,-42,-12,4,2,3
9,16,6,1,34,-7,-4,2,3
-16,-34,11,12,-10,5,0,-1,3
-19,-6,-15,-14,0,-8,0,0,3
12,13,-6,-11,-7,-7,-2,0,3
26,-5,9,10,-10,0,3,5,3
-28,-17,-9,-11,-2,-13,-6,-8,3
-8,2,23,4,0,8,-1,-4,3
17,22,-13,-9,15,6,-1,-2,3
9,-6,-1,11,-33,1,3,4,3
-11,-12,-2,-2,38,21,1,1,3
15,24,5,7,-30,-8,1,-1,3
-23,4,5,-2,74,-15,-2,0,3
12,-15,9,-8,-42,-5,-4,-4,3
35,42,-10,-14,-13,4,0,3,3
-55,2,-9,7,17,-1,0,-4,3
-11,-50,2,6,-29,5,2,-2,3
2,30,9,4,9,-6,-3,-2,3
-9,-30,15,3,-6,-6,2,3,3
36,27,-7,-3,9,5,1,7,3
-8,-40,-14,-5,-10,0,-2,-3,3
-10,56,0,14,16,1,4,5,3
-21,39,4,-8,-23,-12,-8,-12,3
8,3,10,2,19,15,-1,-1,3
1,-21,17,-3,-10,-8,0,1,3
4,-31,-15,-6,-17,-2,-1,-1,3
-15,16,-13,4,-25,-1,0,-5,3
14,14,13,4,100,2,1,4,3
4,-13,-18,-8,-31,0,-2,-3,3
-30,-6,9,-11,10,2,-1,-5,3
-5,-48,-9,5,-12,-4,3,2,3
16,52,11,12,-24,2,3,2,3
3,22,7,-5,8,1,0,5,3
12,-23,-4,-12,-1,1,-6,-6,3
-32,-11,-7,2,6,-3,0,-4,3
13,-34,10,1,-2,-4,-2,0,3
-8,13,-6,5,-8,-1,1,-1,3
10,6,1,-4,-7,5,2,4,3
2,-23,-13,-2,5,-10,-1,-3,3
6,-20,-5,-4,-9,4,-4,-7,3
16,28,11,4,-18,-8,-4,-3,3
-15,-17,10,7,27,19,-1,-2,3
-6,-26,-9,-1,70,-5,0,0,3
9,-3,4,-1,-28,-7,3,4,3
-14,-33,-22,-26,-42,-2,-8,-8,3
-23,12,-13,0,21,3,-4,-8,3
31,31,17,2,-33,3,0,5,3
-22,3,-14,-6,18,3,-4,-6,3
-1,17,15,3,8,-1,4,3,3
13,-31,-1,12,-29,-11,2,2,3
6,2,-6,-3,-8,0,-3,-3,3
11,59,-4,-6,-12,-9,-1,2,3
-10,-7,-8,-4,7,0,-3,-6,3
0,-12,17,4,0,0,5,3,3
12,7,1,8,2,8,1,2,3
9,16,6,2,-2,-9,-2,-2,3
12,-9,-10,6,2,-18,2,6,3
-38,-3,-21,-14,11,-15,-4,-11,3
7,-55,2,-8,3,-1,-3,1,3
-9,-22,-3,-1,25,5,0,-1,3
23,53,11,10,15,12,4,7,3
-26,-63,-19,-5,3,7,-1,2,3
-1,16,16,-7,-24,-3,-2,-5,3
10,1,-30,-13,-4,-3,-2,0,3
-25,-31,7,13,3,1,-1,-4,3
21,38,15,8,-7,-4,0,1,3
18,50,4,1,-8,6,4,2,3
-23,-71,-22,-19,-14,0,-7,-10,3
2,8,-17,-7,13,1,0,1,3
2,8,40,18,-13,1,0,1,3
8,40,-14,-1,0,-2,0,3,3
-3,-22,4,4,-60,-12,2,2,3
10,6,-3,-12,65,-7,-6,-5,3
-18,14,-8,-10,-20,5,0,-3,3
-10,-15,-17,-10,0,-9,-1,-1,3
-16,29,0,9,-32,4,0,-7,3
-4,-23,6,0,13,-1,0,3,3
26,24,-9,0,-17,2,2,5,3
-10,-31,1,-2,43,10,-4,-1,3
-19,4,4,-7,-16,-3,-2,-2,3
-3,1,-9,-2,-20,-3,0,-2,3
18,20,1,-1,16,-3,-3,1,3
-7,-9,12,21,-17,5,2,2,3
24,35,11,15,18,0,5,11,3
16,13,6,-13,-31,10,-4,-5,3
-53,-19,-13,-9,28,-7,-4,-5,3
-6,-8,13,-9,-25,-3,-1,0,3
2,19,8,0,17,-8,-4,-1,3
-4,-29,-18,8,-11,5,6,1,3
21,3,1,0,-6,-2,0,4,3
1,-12,-3,-2,2,-2,0,3,3
-20,-21,-7,-8,-78,-16,-5,-9,3
-26,-20,-6,-6,91,11,-3,-8,3
17,-5,-2,1,-18,1,2,2,3
11,25,3,3,-7,0,2,4,3
1,19,-7,-5,7,0,-4,-2,3
-5,-7,0,-1,-48,-6,-2,-1,3
-2,-7,-6,7,31,-7,-2,-1,3
10,-8,2,-6,-13,5,0,1,3
4,-8,-10,-4,11,-4,3,1,3
-2,1,6,7,-9,7,0,4,3
4,-2,4,-6,12,3,-2,-3,3
-6,17,1,0,-13,-2,-5,-6,3
-39,-48,-21,1,18,-8,-1,-2,3
0,-14,20,12,-8,-5,1,-1,3
9,4,-17,-15,-27,-5,0,0,3
-10,11,-13,-7,10,13,-5,-6,3
15,-13,15,5,31,-8,-1,4,3
8,22,11,11,-20,5,3,2,3
-6,-6,-13,-4,-25,-10,0,1,3
-6,-10,-5,0,56,10,1,-1,3
16,36,12,0,11,-6,1,4,3
19,5,5,-8,-27,-9,-5,-1,3
-14,-34,-10,-6,-53,-5,-4,-7,3
0,49,-11,-7,38,-6,-3,-4,3
-3,-65,2,1,4,7,-2,-3,3
1,-1,-22,1,10,-3,0,2,3
3,1,1,7,9,1,1,1,3
7,-11,-7,-5,-20,6,0,2,3
20,42,12,7,14,14,2,1,3
-25,-62,-7,-5,-2,-5,-4,-6,3
-1,-1,8,-4,10,3,0,0,3
-12,8,2,-1,-19,-11,-3,-5,3
6,-13,-11,2,7,6,3,4,3
9,35,3,-5,-42,-6,-1,-1,3
-1,-6,3,-1,60,6,-1,-2,3
0,-29,8,2,-24,10,1,2,3
8,43,0,-10,24,-1,-3,-3,3
3,-32,-12,-2,-33,0,0,-1,3
11,10,1,6,-1,-6,1,-2,3
-28,-25,-5,-3,19,18,4,0,3
45,85,19,8,-7,-6,-1,4,3
-50,-14,3,-5,12,-1,-5,-5,3
-10,10,-10,-5,8,9,-3,-4,3
0,-19,16,0,-20,-26,1,-2,3
-17,-67,-22,10,-6,12,3,-2,3
15,59,13,4,18,0,2,5,3
19,7,5,-2,-14,-6,-5,-1,3
-12,0,-7,-1,-5,1,0,-1,3
-3,8,6,-8,-4,-1,2,2,3
6,-27,-5,-3,6,-7,-2,0,3
-12,-47,-4,-3,-6,-2,0,1,3
-9,25,12,0,-21,-6,-3,0,3
-14,-26,-12,-12,-12,-18,-4,-5,3
5,10,-7,8,30,-7,3,2,3
-1,23,12,11,22,18,5,4,3
17,-4,-10,8,-10,2,0,2,3
-9,-5,29,-2,-6,-20,0,0,3
-1,24,-8,-16,-22,-3,-5,-3,3
15,-4,-1,-4,3,1,1,2,3
18,-8,-16,-3,12,0,-1,1,3
-16,-6,-2,14,-9,25,3,-1,3
2,1,14,3,7,-30,-4,-1,3
2,6,6,-6,-11,-6,-3,-3,3
8,2,-2,3,4,7,3,5,3
2,3,1,4,7,5,-1,0,3
2,-8,-10,3,-1,12,1,-3,3
0,7,2,-5,-3,-3,-2,-2,3
-6,10,-1,-4,-10,-9,0,-3,3
12,5,-5,4,2,7,-1,-1,3
-13,-1,18,-1,-29,6,-1,-1,3
7,-13,-20,-3,68,2,0,0,3
-3,-5,1,0,5,-9,-3,-3,3
-6,-18,10,-3,-2,13,1,2,3
-7,-11,-12,-13,-53,13,0,-3,3
6,12,-13,-4,-2,-51,-2,1,3
4,10,6,12,10,14,2,3,3
-3,10,-2,4,23,-8,-5,-7,3
-23,-24,0,-8,-3,1,-2,-4,3
-10,25,-1,5,-30,6,4,3,3
20,20,2,-5,2,-8,-2,3,3
3,28,-2,-9,-10,3,-3,-4,3
33,-55,16,0,10,1,-1,3,3
-57,-63,-20,-5,-12,4,-8,-10,3
-6,-29,-5,4,10,-3,1,-1,3
13,19,4,-4,-11,7,1,2,3
-13,16,-1,3,19,8,3,2,3
11,6,7,-1,-32,-22,-4,-3,3
4,-14,-2,7,62,18,2,2,3
-12,-15,-3,-2,-15,-8,-3,-4,3
9,35,8,3,24,2,-1,1,3
15,-4,-1,-7,-42,6,1,3,3
-22,5,-10,-7,-13,-13,-2,-1,3
21,7,-6,5,23,-5,-2,0,3
-15,-9,11,0,-1,3,1,1,3
1,13,-9,2,1,6,-1,-2,3
9,29,12,8,-22,-9,-1,-2,3
-1,-51,-6,4,18,7,3,7,3
-4,-15,-4,3,0,-6,-3,0,3
-17,16,13,1,-7,2,1,-1,3
16,26,3,-10,1,2,-4,-3,3
-33,-17,-16,-8,-5,-5,-1,-4,3
15,-9,-13,-1,-3,-6,0,1,3
18,40,23,8,-37,-4,2,8,3
-14,-20,-17,-3,72,21,-3,-5,3
-9,6,-3,3,-10,3,3,3,3
-6,-9,-8,-3,14,4,1,-5,3
12,-5,9,5,11,6,0,2,3
1,-5,0,-4,-58,-12,-1,-2,3
-10,0,-7,-11,-17,4,-3,-2,3
10,4,2,3,31,-8,-1,-1,3
-7,18,3,8,7,10,1,-1,3
2,-11,-4,1,-24,-9,1,0,3
14,-2,-4,-4,5,-19,-5,-3,3
-29,26,-21,-11,-11,6,0,-8,3
-3,-9,0,3,32,24,0,-2,3
-3,-3,-4,7,-11,-29,-3,-2,3
9,6,19,5,-3,0,1,4,3
10,3,0,-7,-17,-8,-3,0,3
-4,0,-7,-12,9,-5,-2,-3,3
-7,-28,16,-11,-3,14,0,0,3
30,37,-13,2,-9,-22,3,6,3
15,65,14,27,1,-6,1,6,3
-22,-52,-27,-10,50,14,-5,-10,3
-13,-53,-4,-1,-37,3,-1,0,3
-9,5,6,-15,2,-1,-3,-7,3
7,-3,-4,-7,-8,-3,0,3,3
22,23,6,7,-9,-6,1,4,3
1,16,2,-5,0,-3,-2,0,3
-11,-10,-4,-2,0,5,0,-3,3
1,-1,0,1,6,1,1,0,3
11,2,4,-4,-37,1,3,3,3
12,20,8,9,9,8,2,4,3
-31,-89,-26,-11,-1,-16,-5,-12,3
-2,3,9,5,44,15,1,-3,3
-2,8,-40,-10,-11,-4,-5,-5,3
6,39,2,2,-6,-1,1,0,3
14,-15,8,13,-12,4,1,2,3
-10,-22,19,-3,-5,-4,0,0,3
0,-22,-4,-13,1,2,0,-2,3
13,22,-14,8,-3,3,1,1,3
-7,23,21,12,11,-21,-2,0,3
20,17,0,-5,-35,3,0,5,3
-9,1,20,7,61,-16,-2,0,3
2,-35,-13,-15,-31,3,-6,-11,3
-31,26,-5,-8,10,12,-1,-1,3
-8,-14,-6,-1,-17,-7,-4,-4,3
7,-18,10,0,-17,-2,4,3,3
-2,-13,-6,4,20,-2,4,2,3
8,6,-1,5,2,3,2,0,3
2,15,8,-1,-1,-3,0,0,3
-2,13,-18,-4,-10,4,0,-2,3
-12,-4,18,6,-49,-9,0,-2,3
19,18,10,1,38,1,-2,1,3
-36,-63,-41,-12,9,8,-2,-10,3
-25,6,4,4,-8,23,1,-4,3
-7,-28,-6,-14,2,-34,-7,-2,3
6,17,8,-5,-29,1,-2,0,3
15,0,12,6,-2,-24,1,3,3
4,-1,-2,3,10,-1,1,1,3
-4,9,4,0,-3,8,0,-2,3
9,-12,3,6,29,28,6,5,3
-3,-4,-7,-4,-1,-4,-2,1,3
-15,26,-2,-2,-5,4,-3,-5,3
6,6,0,-7,-7,-9,-1,1,3
-11,-20,9,1,1,-6,-4,-5,3
7,-26,-19,2,2,13,3,-1,3
3,43,28,5,-20,-12,-1,4,3
6,13,-8,2,17,4,-1,-1,3
-16,-18,-10,-13,-8,-5,-3,-5,3
-7,-26,-6,-8,2,3,-2,0,3
13,-8,7,6,3,2,3,6,3
-2,-1,-4,3,22,2,1,1,3
8,24,4,-3,-12,8,4,3,3
-3,7,1,-1,-30,-10,-1,-3,3
22,17,8,9,66,27,2,3,3
-9,-68,-13,-12,-24,-34,-8,-10,3
-41,30,-7,-1,-11,1,-3,-7,3
1,-4,7,-3,5,-3,-5,-2,3
-6,-23,-9,2,-2,8,-3,-4,3
15,22,-2,-3,24,12,2,5,3
5,-4,-9,-13,-18,3,2,0,3
14,29,12,15,3,14,4,3,3
-14,-57,-14,0,-5,-40,-5,-1,3
2,11,13,4,10,3,0,2,3
12,12,-16,-7,-17,-7,-4,-4,3
-7,3,1,2,16,16,3,0,3
11,-4,-6,-1,-15,-7,0,-1,3
-33,2,-3,-2,-4,8,0,-2,3
8,0,7,-2,-3,-5,-1,-2,3
11,15,4,0,7,-5,-2,2,3
4,-9,1,-4,-20,-3,0,2,3
-7,13,-5,-2,8,6,1,0,3
22,13,2,7,6,3,-1,0,3
-23,-14,-1,-4,-20,-2,-1,0,3
-8,-9,7,-4,14,-8,-1,-1,3
-5,7,-8,1,-7,15,1,0,3
3,4,4,4,15,-6,1,4,3
18,30,-1,-7,7,3,-1,1,3
-10,-7,6,5,-30,-5,-1,0,3
-9,-3,-21,-10,3,-3,-4,-7,3
-16,-9,-1,4,-4,-2,0,1,3
-6,-12,7,-6,-2,-10,-1,-3,3
6,3,-1,-7,0,7,-3,-2,3
20,24,6,12,7,2,4,5,3
-9,-32,16,6,-8,3,-1,-5,3
-19,-15,-27,-11,-3,-12,-5,-6,3
-7,10,-8,-1,-7,-2,-1,-4,3
11,-8,11,3,0,-4,2,5,3
4,10,7,2,-4,5,-1,-1,3
6,31,10,-3,-3,6,0,-1,3
-5,-27,-17,-12,-60,-39,-5,-2,3
-8,-11,0,0,60,0,-1,-1,3
2,-5,-7,4,5,22,0,3,3
5,23,-10,-2,14,-22,-4,-4,3
5,19,12,-8,-23,6,0,2,3
-5,-17,-3,2,-19,-5,-1,1,3
-1,-13,-7,5,12,9,0,-1,3
12,-1,-4,3,-1,-3,2,0,3
8,51,-19,-8,9,3,0,-2,3
-5,-33,27,5,-10,-1,1,0,3
25,40,-4,-14,0,-6,-2,1,3
-35,-27,-3,8,-2,6,2,-1,3
-11,36,7,0,12,3,0,-4,3
-11,-82,-26,-12,-8,-1,-2,-3,3
-6,1,10,3,-6,1,4,2,3
7,-6,5,-12,-31,-16,-4,2,3
1,-16,-6,5,27,0,-1,-1,3
1,26,9,12,17,13,1,0,3
12,8,1,2,-58,-13,1,5,3
-16,-19,-11,-6,46,6,-6,-8,3
3,-18,10,4,-6,2,3,5,3
4,20,2,-7,-4,11,0,-2,3
9,3,-12,-6,0,0,-1,-2,3
-2,-4,-1,5,-8,9,-1,-1,3
-2,-25,-5,5,-9,-32,-6,-2,3
9,24,8,4,-3,2,0,1,3
-11,-17,6,-4,9,-1,0,0,3
14,3,-4,-7,-3,9,4,4,3
-19,-42,-3,-12,9,10,0,-5,3
17,57,-15,-3,-13,-5,-2,1,3
-7,-34,2,24,16,-3,1,1,3
27,1,-5,2,8,6,-3,-4,3
-34,-1,3,-2,2,14,1,-2,3
-7,4,-2,-11,-12,-12,-2,-2,3
-5,5,-4,-9,7,-3,-3,0,3
5,-15,3,1,-27,-9,-1,-1,3
19,2,-3,2,-6,-2,2,3,3
-2,38,6,2,47,18,-3,-4,3
-1,-2,7,-1,41,6,-2,-2,3
-19,-19,-4,5,21,0,-3,-5,3
12,0,2,1,-29,1,1,0,3
-3,-15,0,0,-24,-16,-2,0,3
2,8,-4,-2,-7,0,0,2,3
12,57,13,7,-13,1,5,7,3
-10,-21,-19,-7,15,-1,-5,-5,3
-3,-19,15,13,-7,3,-2,-2,3
8,-10,1,-6,-1,-4,-3,-1,3
-27,-11,-3,-5,-7,-1,0,-2,3
15,33,14,4,6,4,0,2,3
-15,-36,0,0,0,-4,1,2,3
1,68,-11,-8,-18,-9,-5,-4,3
4,-27,6,5,10,9,2,0,3
8,-5,-5,-6,4,-12,-5,-2,3
-3,0,-3,-3,-21,2,-1,-5,3
-11,-26,-2,-2,-3,-6,0,-1,3
-1,6,10,-9,-5,1,0,1,3
16,38,-13,-1,2,6,0,1,3
-12,-3,4,11,-12,-14,-2,-4,3
-7,-16,-4,10,-14,-5,0,-1,3
-2,0,0,1,25,0,-2,-2,3
-3,-25,3,-4,-1,4,1,1,3
4,14,-6,-13,-6,-6,-2,0,3
0,7,4,-1,2,1,0,-1,3
-13,-34,-3,-3,-18,-4,-1,-2,3
3,9,2,2,0,-16,-5,-3,3
2,10,-9,-6,4,6,-21,-1,3
3,9,0,-4,-4,-1,6,-4,3
8,-21,-2,3,1,-5,2,5,3
-4,29,5,-2,-2,9,17,2,3
0,4,-2,-3,-8,-2,6,-3,3
-6,-19,-14,-3,34,-4,11,3,3
-6,9,11,12,5,9,-20,-8,3
12,-4,1,7,-17,0,-9,-3,3
3,15,3,1,11,-6,-6,9,3
-12,-31,-5,-13,-13,5,3,-7,3
-2,10,-11,-10,13,-13,30,1,3
-1,-13,2,6,-3,2,-28,-2,3
6,7,8,-1,-3,5,38,-2,3
3,-2,3,2,-10,-7,-2,5,3
7,28,-8,-7,-4,-7,-18,-2,3
2,7,4,-4,-7,-1,-4,-2,3
20,76,-4,-1,-3,-3,-10,0,3
-26,-62,-1,4,4,-1,-2,1,3
-4,4,5,3,-6,5,16,-1,3
-15,-4,-1,-3,-8,2,10,1,3
10,-9,-4,-1,20,3,1,-3,3
-1,10,-7,-2,-3,-1,-4,0,3
35,13,-2,6,-14,-6,1,6,3
-54,-13,6,1,9,0,-17,-9,3
-6,-20,-9,-5,-5,13,-10,-5,3
5,12,1,2,3,-3,-8,1,3
0,-6,-3,-3,-17,-8,1,-1,3
15,-6,1,-2,8,11,22,5,3
-10,-24,6,3,-4,-7,-5,0,3
26,40,6,0,-40,0,1,2,3
-11,-1,-8,-1,29,-28,-18,-5,3
13,-10,1,7,6,8,0,2,3
-19,-29,-5,-4,-11,-10,-36,-9,3
4,-16,-4,-13,-1,7,39,1,3
-4,15,4,-2,-16,3,8,6,3
12,7,4,6,-20,-3,-2,-5,3
4,-7,-1,10,30,1,4,4,3
-15,-5,-8,3,2,-5,-16,-4,3
-4,-1,0,-15,-5,10,-3,-4,3
-4,-2,-8,-6,11,-5,4,1,3
7,2,0,0,-21,1,4,2,3
2,1,0,-2,10,-2,-9,2,3
4,-3,5,1,1,4,-2,-4,3
3,2,-5,-6,1,-4,-8,-3,3
0,-21,1,5,-5,1,45,6,3
3,62,6,-3,6,-4,-9,-4,3
-5,-42,-9,-9,0,-1,-29,-6,3
-1,0,-12,1,3,0,4,3,3
-2,-2,19,15,4,0,0,-3,3
-11,-19,0,6,12,6,27,-1,3
-17,7,-2,-1,-14,-5,-26,-4,3
4,-4,-9,-16,-9,-6,-3,-3,3
0,14,-7,-15,4,9,25,1,3
13,-5,6,12,-10,7,-4,2,3
-2,5,6,12,22,-6,1,2,3
-3,1,-2,-3,-2,-2,-19,-4,3
-9,-9,0,-4,-22,-2,-11,1,3
8,19,2,-5,2,-6,-6,-4,3
-3,-15,-5,2,-2,7,17,1,3
0,3,2,14,14,8,9,1,3
6,16,3,-2,2,2,8,-3,3
-5,-16,-7,-8,-5,-10,-31,-1,3
-3,1,4,1,-5,2,7,0,3
4,3,4,-6,3,-4,2,0,3
-4,-7,-11,-10,-5,-7,-9,-2,3
-13,7,-3,0,4,1,0,-2,3
8,18,7,14,2,9,19,1,3
4,-13,-3,-8,-1,-10,-38,-2,3
14,-17,-9,-9,-7,-2,6,-1,3
-29,-21,-9,-4,-1,0,-2,-3,3
8,6,10,30,-2,0,4,4,3
2,17,2,9,-6,3,23,3,3
6,17,-2,-9,19,1,-22,2,3
5,-18,-4,-19,-17,6,-30,-2,3
-1,0,-7,-17,10,-9,21,-1,3
0,-9,-4,4,3,0,-1,-1,3
-4,9,3,-4,-12,-6,-13,0,3
-2,-31,13,11,11,-9,5,1,3
8,30,-2,-4,-6,9,-9,-2,3
-15,-6,-13,-4,5,2,14,-3,3
-5,-2,1,-2,5,0,0,-4,3
2,2,1,16,-1,3,0,-1,3
1,-6,2,-6,-7,-1,-1,2,3
1,-12,5,-4,3,-1,6,1,3
-11,-2,-15,2,-5,-3,-7,-3,3
-1,-3,1,-15,-5,-5,-1,-1,3
0,6,-8,-6,0,-1,-5,-3,3
1,22,16,16,8,5,2,2,3
14,-13,8,12,-2,-1,-1,2,3
-8,-20,-6,0,3,3,3,-3,3
-3,8,-7,-15,-1,-2,-2,-1,3
2,3,0,-4,-7,-4,-6,1,3
3,6,-5,-1,-37,-8,-7,-6,3
3,4,2,-6,17,4,11,1,3
-5,13,-2,19,37,25,9,-2,3
-6,-46,11,12,-13,-11,-19,-1,3
0,22,-3,-3,19,1,-2,1,3
0,-15,-10,-8,-15,7,7,-3,3
-1,-3,-5,-28,-15,-4,8,-2,3
10,23,2,-9,2,6,7,1,3
-13,-9,0,14,-1,-3,-1,3,3
16,29,10,-4,-1,-5,-6,2,3
-13,-7,-9,-13,-11,-6,-9,-6,3
-1,-19,-12,-22,-4,-2,7,1,3
2,1,4,15,10,8,0,2,3
5,2,11,21,13,1,4,3,3
-8,-12,3,6,-3,-5,-6,0,3
-1,4,-2,-13,-7,-1,1,-2,3
-5,-6,-7,-14,-1,-2,1,-1,3
4,-13,-9,1,-2,-3,0,-3,3
16,-10,4,1,-5,-5,-13,0,3
-11,15,-11,3,0,-2,14,-3,3
3,0,9,-6,-3,4,7,4,3
5,8,-1,10,9,4,-9,-1,3
4,0,3,3,-10,1,16,1,3
2,1,-1,8,5,-6,-17,-4,3
4,-4,-2,-6,-3,-1,1,0,3
-26,7,-5,5,-10,-12,-21,2,3
-3,10,5,-9,0,0,-1,-1,3
8,2,0,2,-10,-1,1,1,3
-12,-6,0,0,17,2,12,-2,3
9,-10,2,-1,-12,0,-5,-3,3
2,19,0,5,13,-3,-6,3,3
11,4,6,13,-4,4,11,4,3
10,1,-1,-15,-29,-6,-9,-5,3
-15,-16,-18,-21,18,-3,7,-6,3
-17,-17,-2,6,-13,-3,-13,-6,3
-9,-12,-10,-4,5,7,9,-1,3
-1,18,11,11,1,9,-4,-1,3
10,5,11,11,2,-10,2,4,3
7,1,-6,-4,-14,4,3,1,3
-5,0,-5,-8,2,-5,-18,-1,3
0,10,-8,-5,-8,0,35,-2,3
2,1,4,-8,-1,3,-16,-2,3
5,-20,0,16,23,1,-33,-1,3
5,4,7,11,-1,11,9,1,3
16,7,-3,-5,1,-13,-13,2,3
-31,7,3,-7,-5,4,16,-3,3
-4,-34,1,8,-7,-5,13,0,3
0,7,-9,-30,2,-6,-12,-7,3
0,-26,-3,15,2,1,0,1,3
2,11,-11,-21,-5,-3,3,0,3
-11,15,13,-3,0,4,-1,0,3
-6,-36,-9,13,3,-2,4,0,3
-4,2,-5,-27,2,-7,-14,-5,3
12,3,7,27,-2,8,21,1,3
-8,7,-3,-2,-7,-11,-20,1,3
5,5,3,-1,-2,-1,3,4,3
-11,-18,-1,-5,3,1,-4,-7,3
7,3,-4,-2,-3,-3,2,3,3
2,0,-2,-1,-4,4,-1,-3,3
-6,-2,3,-4,3,-10,-3,1,3
-14,16,0,8,3,-1,-19,1,3
5,-8,5,5,-2,0,5,-5,3
-15,-6,1,-6,-4,2,17,3,3
4,16,5,-7,-3,-3,15,6,3
0,-6,-6,4,-12,9,-3,-3,3
3,1,-9,-1,7,-10,-10,-4,3
4,0,1,-9,14,-3,22,2,3
-13,7,2,15,-9,0,-12,-6,3
3,-4,7,5,10,0,-7,-2,3
7,9,-4,7,-14,-2,3,3,3
2,-3,-2,-2,-5,7,39,1,0
3,0,-2,-2,7,-6,-6,-3,0
-6,-6,-3,-20,-22,-8,-22,1,0
1,-5,-3,7,16,2,-15,-7,0
7,-6,1,-7,-6,-3,3,7,0
-14,27,10,4,7,13,22,-13,0
0,-4,-9,1,2,-10,-11,-4,0
-1,-19,6,3,-4,1,-1,0,0
7,3,0,1,-1,1,-6,1,0
11,0,5,-2,-2,1,3,6,0
-4,2,-7,-3,3,-2,3,2,0
3,5,-5,-9,-1,-4,-2,-4,0
12,6,-1,1,-1,-2,2,-2,0
-16,-19,-2,6,1,-1,-19,2,0
-3,-6,5,5,4,11,15,1,0
5,9,-1,-10,-3,-7,16,5,0
-8,-6,-3,-1,-6,-4,-30,-2,0
9,-6,-2,0,8,-6,-11,2,0
1,2,7,-1,2,9,5,2,0
8,33,-1,4,-4,-1,-36,-3,0
-13,-24,-8,2,-3,-3,8,-4,0
-18,-23,-5,-2,-4,2,4,-5,0
-7,-2,3,0,4,-9,2,2,0
-7,-19,-5,-8,-8,3,12,-2,0
10,14,-10,-18,-5,-6,-18,-5,0
7,1,3,0,12,1,-2,-1,0
-19,6,6,4,6,2,6,0,0
-5,-3,2,11,4,-1,5,-3,0
7,-1,7,9,1,1,-6,-4,0
12,-14,-1,-1,-10,-2,-2,2,0
-7,6,-1,1,-1,1,17,3,0
1,15,-6,-16,-2,-1,-12,-3,0
6,-8,-2,-8,-5,-7,-3,2,0
10,9,1,16,0,1,-9,-1,0
-4,4,-2,-2,1,-5,-6,-4,0
4,-33,-3,-22,-3,6,27,2,0
-12,10,-1,27,2,2,-9,-5,0
0,-2,3,-9,0,7,10,0,0
3,3,3,11,3,-18,-27,1,0
7,16,0,-14,-6,2,-13,2,0
5,0,-1,0,2,1,6,-4,0
-3,-15,-8,-13,-5,-4,-3,-2,0
-1,-10,-7,4,-1,4,6,-5,0
-1,6,9,8,6,6,12,-5,0
-5,2,2,-16,-1,-2,-12,0,0
-5,10,-3,13,-4,-5,7,1,0
6,2,-1,-4,-3,3,-12,-2,0
-8,-17,6,4,1,-7,21,7,0
6,28,2,6,2,4,-1,2,0
13,7,0,-12,-5,-1,16,-3,0
-10,0,-5,-4,-4,-1,-16,-1,0
-25,-32,-7,3,-2,2,7,-2,0
-4,-16,-5,-12,-1,-5,-13,-3,0
9,-2,-1,10,0,2,7,5,0
27,-8,12,11,4,3,5,3,0
-4,27,7,10,1,0,-8,0,0
-12,5,-9,-6,-2,-10,-8,-6,0
0,-1,-10,-13,-3,6,31,-2,0
7,-9,-9,-9,-3,-10,-41,-7,0
14,-2,7,11,0,-10,-2,11,0
7,3,4,4,1,3,11,11,0
-47,-26,-2,1,2,-1,-20,-6,0
11,2,-1,-10,-2,9,25,-2,0
18,1,-7,-18,-2,4,-1,2,0
-10,2,0,17,-1,-6,-1,-2,0
-7,-15,-2,-9,-3,-1,-9,5,0
1,15,11,7,5,0,8,2,0
-16,-10,-9,-4,-4,-3,-4,-9,0
12,-6,-4,-5,1,7,-3,-1,0
-2,5,-2,-1,-2,-2,-12,-3,0
9,-4,-5,-5,-4,-1,5,-1,0
3,11,4,8,1,0,-3,-1,0
-3,14,-1,-2,-2,5,4,-2,0
5,-4,-6,-1,-4,-4,12,-2,0
15,9,2,-4,0,-21,-29,6,0
-45,-23,-1,8,2,4,-4,-4,0
2,-6,-5,-7,-3,-4,-5,-3,0
18,28,7,1,4,1,1,4,0
-13,-16,-12,-5,-2,8,7,-2,0
14,6,7,0,-1,0,-3,5,0
-1,-9,2,3,-1,-4,-13,-4,0
5,25,4,2,2,2,-2,2,0
-6,-1,-9,-7,-4,-1,16,-6,0
3,-2,0,2,-5,-5,0,-1,0
-2,-5,4,0,3,14,10,4,0
13,-2,-3,-5,-5,-4,9,11,0
-14,3,7,12,7,0,8,1,0
-4,9,-2,-3,1,-3,-4,-5,0
5,-9,-2,-10,-1,1,-12,0,0
23,8,6,4,3,1,-4,-2,0
-18,-3,-3,-10,-2,2,8,-5,0
10,-10,-2,12,-2,2,-12,0,0
-2,5,-1,0,-4,-3,6,-2,0
-16,-7,12,2,3,-1,4,-7,0
-29,-17,-10,-3,-2,-1,4,-1,0
0,13,-2,-18,1,0,-8,-2,0
-12,-25,0,9,2,2,8,0,0
17,15,-2,3,-2,-6,-20,-4,0
-27,3,-1,7,-2,0,15,-1,0
19,8,-2,-6,0,2,-1,4,0
15,0,-12,-11,-7,-13,-13,-7,0
-11,-29,2,6,4,7,8,-8,0
-10,-18,0,5,0,4,12,-2,0
21,10,-3,2,1,-13,-42,-10,0
-1,4,-5,-5,-2,0,-10,-2,0
1,-3,-5,-3,-5,-5,-17,-3,0
21,0,-1,-5,-3,-4,-3,2,0
-32,-10,-3,-2,-5,5,14,-3,0
6,-2,8,7,0,-6,14,2,0
-8,1,-6,-6,-4,0,-11,-2,0
16,12,4,0,-3,3,3,10,0
10,12,5,1,6,8,14,-2,0
-18,-6,4,8,-4,-15,-32,-5,0
-6,-5,5,9,2,7,11,1,0
-9,-12,-2,1,-1,-2,3,-6,0
1,1,-2,-2,-4,-3,-4,5,0
-6,8,-1,-1,7,8,14,0,0
9,9,-1,-10,-1,-2,-7,5,0
-6,-19,0,-1,0,-6,-6,-2,0
-13,-3,-4,12,-2,3,3,-1,0
4,5,6,-6,-2,2,6,-1,0
-15,-14,3,5,-1,1,12,-1,0
31,20,-4,-4,0,-2,-14,0,0
-22,2,-4,-7,-3,1,1,-5,0
-1,-2,-5,2,-1,-6,13,1,0
-8,-13,-7,-8,-2,-3,-8,-2,0
-5,-7,0,0,-1,8,30,4,0
16,5,5,4,-1,-15,-20,2,0
2,0,-2,2,0,4,-17,-2,0
-3,-3,1,-3,0,-2,2,0,0
-6,22,1,-1,2,5,1,-2,0
6,6,-2,2,-3,-2,3,-2,0
3,-14,-1,-7,-3,3,12,3,0
-15,-3,-3,2,1,-3,-3,-3,0
24,17,6,3,0,10,8,2,0
6,-12,6,6,0,0,-7,-1,0
-15,10,1,7,2,-10,-14,-1,0
-7,-23,-11,-6,-2,-4,-8,-2,0
15,12,-4,-7,-1,-4,-5,-2,0
-2,-7,-4,-2,-2,5,-2,0,0
-5,-19,3,2,-2,3,11,-2,0
-3,-2,0,4,0,-1,-12,1,0
13,54,0,0,-2,-5,-8,-2,0
-10,-6,-5,-9,-1,5,6,-1,0
1,-6,-5,-5,0,9,25,-1,0
10,0,1,-1,-2,-6,-5,2,0
-11,-36,1,0,0,-1,-23,-4,0
0,-2,-1,0,0,-1,-2,-2,0
1,3,-2,0,-2,4,2,-2,0
-6,-4,-1,-25,-2,4,2,0,0
18,1,-4,25,-1,-4,-3,1,0
-27,-4,-5,-1,1,-4,3,-3,0
5,8,10,-2,2,-1,-3,1,0
13,8,6,7,0,3,4,0,0
-16,-10,2,-5,-2,-2,-2,-2,0
23,5,-7,-11,-3,-11,15,4,0
-17,-2,-4,-4,-2,-1,-4,0,0
-4,23,-7,-2,1,2,-5,-5,0
-1,-12,0,11,-1,-4,-6,2,0
3,-3,3,3,2,7,6,3,0
1,4,1,-7,0,1,16,1,0
2,-7,0,1,-1,-6,-18,-1,0
-2,-8,0,-2,2,6,17,2,0
-12,-1,-7,-7,-5,-6,0,-7,0
6,11,-2,0,-2,1,7,-3,0
1,0,-1,2,-1,-2,-22,-1,0
3,-7,0,-4,-3,1,21,0,0
31,17,7,4,1,3,7,5,0
-45,-46,-8,-1,-1,-3,5,-6,0
-25,5,-5,0,-6,-5,14,-8,0
-6,-16,-4,-8,-2,-2,-9,-1,0
0,16,-5,-20,-3,6,7,-2,0
33,18,-1,15,-4,-14,-21,0,0
5,-6,-3,-18,-3,1,-13,4,0
1,-2,-6,-10,0,-1,4,6,0
-5,3,12,25,1,-1,-1,2,0
21,-2,9,-14,8,5,-9,2,0
-3,-12,0,26,4,3,12,2,0
23,34,-5,-15,-4,-1,-4,-6,0
-8,-29,-7,-2,-2,1,-4,2,0
1,8,1,4,-1,-3,-16,3,0
7,-8,4,-2,1,-1,8,-1,0
-25,-10,-2,-1,-5,1,16,-8,0
5,0,0,-4,-2,-10,-31,-6,0
-18,3,-3,1,0,7,15,-2,0
18,5,1,-1,1,-8,-1,3,0
-11,-10,-4,5,-4,-1,4,1,0
2,10,0,1,0,0,-3,-2,0
9,6,-2,-3,-4,0,0,-1,0
-10,-2,0,2,-3,3,8,-5,0
-3,7,2,-1,1,-6,-17,-1,0
-15,-16,-5,-1,-1,3,13,1,0
16,-2,4,-2,-2,-3,-17,-5,0
-11,10,2,7,2,0,17,1,0
-13,-26,-1,-4,-3,-4,-16,-5,0
-5,-1,4,2,2,6,9,2,0
46,17,2,3,1,-9,-9,4,0
8,51,-6,-16,-4,0,-2,-2,0
-4,2,-3,14,-1,-3,-8,-8,0
5,-2,4,-2,0,-4,-6,-1,0
-17,-13,-7,-3,0,0,6,-2,0
25,-5,9,-6,-1,3,0,9,0
6,6,1,3,1,-1,7,5,0
-17,-11,-3,1,-2,-4,-19,-4,0
-8,9,0,-11,-2,6,6,3,0
-7,-22,-4,15,-3,9,24,-5,0
-5,3,1,2,1,-10,-32,3,0
7,-3,-2,-4,-1,-4,-6,-4,0
-18,-5,-7,-3,1,3,-1,-1,0
-15,-4,-5,-2,1,-10,-8,-6,0
-5,-8,1,-5,-1,2,-1,-4,0
5,1,1,2,2,2,12,2,0
15,17,2,6,0,-3,-2,3,0
-12,-19,-3,1,1,3,-2,-2,0
9,-28,-7,-3,-1,-1,-3,-1,0
-9,14,-8,-10,-1,-2,0,-5,0
-21,6,-2,0,-7,-7,-9,-7,0
16,6,6,11,3,-2,-3,1,0
4,7,1,-2,0,0,4,4,0
0,-16,-1,-6,-2,2,22,2,0
6,-1,-2,8,-1,2,-1,2,0
1,6,6,-1,4,4,-7,1,0
11,-3,-2,-4,-1,-1,3,1,0
-22,-9,-14,-4,-4,-1,-3,-11,0
-18,-9,1,-2,-1,-3,6,-2,0
-5,-5,-6,-9,-1,-3,-6,-2,0
1,5,6,9,3,6,8,4,0
10,2,5,0,1,-2,-3,2,0
4,-3,-7,-1,-1,-1,-1,-1,0
-5,5,4,-14,-5,-4,2,-5,0
-5,9,-1,15,-1,1,10,0,0
24,5,-2,-5,1,8,2,3,0
-29,-20,1,-1,0,-7,12,-1,0
-4,-12,-9,-5,-4,-3,-17,-2,0
14,16,1,-11,-3,-3,1,-1,0
-11,0,-1,-9,-2,-3,-8,-1,0
15,4,6,22,7,9,2,-2,0
-4,0,3,4,1,0,-3,-1,0
4,-12,4,-4,0,8,23,0,0
-2,-3,-4,2,-4,-15,-31,-3,0
-3,-1,-9,-17,-6,0,0,1,0
-1,26,1,9,-1,-4,-7,-5,0
-23,-19,-6,-1,-1,3,-3,-3,0
7,-2,6,2,0,1,7,7,0
-5,-4,2,-5,-1,-2,-1,2,0
18,-2,3,6,1,1,4,-2,0
4,5,0,-1,1,0,8,3,0
-31,-12,-4,-1,-1,-1,-17,-8,0
-11,-12,-8,-13,-3,4,-4,-2,0
17,13,-2,1,-3,-9,-2,1,0
-14,7,7,-6,-1,-5,-17,-1,0
18,0,4,18,1,3,30,1,0
-2,4,3,15,1,6,-9,0,0
-6,0,5,-2,0,1,-4,3,0
21,-1,-5,-7,-1,-5,-10,-2,0
-16,-8,-4,-3,0,-5,-4,-2,0
17,14,4,-8,-3,-1,8,4,0
-7,-23,-5,-3,-3,1,7,3,0
-7,26,1,3,-1,-4,-15,-2,0
11,3,-1,-6,-4,0,6,2,0
-18,-19,-2,4,3,1,2,-1,0
-13,-8,-1,-5,-2,-3,-9,-6,0
-4,-14,-2,-4,-3,0,5,0,0
14,10,4,-2,3,3,-2,2,0
-3,10,6,16,-2,-3,-7,-2,0
-17,-17,-6,-5,-3,-2,7,-2,0
-12,-10,-5,-7,-2,3,-7,-6,0
15,3,-2,-1,-1,-4,3,3,0
13,6,1,-5,1,-2,-4,0,0
6,3,1,0,0,2,1,5,0
-5,4,-1,-1,-1,2,1,-3,0
4,-10,3,-2,1,-1,-5,1,0
9,-2,-3,15,1,-1,10,-1,0
-28,1,-6,-1,-3,-1,-32,-6,0
10,8,3,1,1,-2,17,0,0
-37,-18,0,-2,-5,1,-12,-7,0
9,-7,-9,-15,-4,-3,-6,-3,0
12,3,-1,6,1,3,19,-2,0
-13,-12,-3,-2,-1,-1,-10,-2,0
11,20,3,2,0,2,0,3,0
-17,-21,-8,-14,-4,-4,0,-9,0
-4,5,-2,4,-1,-5,-4,2,0
6,-3,-1,-4,1,2,9,4,0
-10,3,-1,5,3,1,4,-2,0
8,8,1,-7,0,1,-3,-2,0
-3,-8,6,-5,2,1,5,4,0
9,10,-5,5,-3,-5,-7,0,0
-4,-3,1,12,4,2,10,-2,0
14,-11,2,1,-2,-3,-12,-3,0
0,5,-4,-9,-1,5,5,2,0
-24,0,-4,1,-2,-2,3,-3,0
7,-7,-11,-24,-5,0,-3,-3,0
-6,14,4,2,-1,-4,2,0,0
19,-2,11,16,2,-2,-2,2,0
6,-1,0,-2,-1,9,2,1,0
2,2,0,0,-3,1,8,0,0
-9,15,0,0,-2,-19,-49,-3,0
-24,-19,-6,-12,-2,3,26,-2,0
8,0,-1,2,-2,-6,-10,-5,0
-12,-6,-3,-2,-2,-6,-21,-4,0
1,6,-1,-3,-2,6,13,4,0
7,2,-3,-13,-4,-4,-7,1,0
10,2,2,2,0,-1,-3,-1,0
8,8,1,7,0,3,8,0,0
9,-10,5,1,3,2,8,1,0
-19,-18,1,5,-1,0,-10,0,0
-10,6,-6,-9,-1,-1,11,-2,0
-1,-4,0,5,-2,-3,-6,0,0
3,-17,-2,-2,3,3,20,-2,0
7,18,-6,0,0,-2,-11,0,0
14,-7,3,-10,-1,1,0,2,0
-28,-22,5,8,0,-6,7,-6,0
-13,-1,-5,-3,-2,2,4,1,0
8,12,-2,-1,-4,-1,2,-4,0
-15,13,2,0,1,2,-12,-3,0
8,3,-1,-5,0,0,-3,0,0
6,-8,-1,-3,-2,-3,6,2,0
7,10,-2,-10,2,2,-9,-7,0
12,-6,0,6,0,-4,-9,0,0
-18,2,2,4,1,-1,0,1,0
-1,2,-4,2,-2,0,-4,-2,0
5,21,-4,-1,0,1,-4,-3,0
-6,-6,0,-13,-5,-5,3,-5,0
12,-14,-1,4,-1,2,10,4,0
-16,-10,-2,-4,0,1,-9,-2,0
6,0,2,15,1,-1,6,1,0
5,-2,0,0,1,1,11,-3,0
4,-1,-1,-7,0,1,-10,3,0
0,-5,-2,11,-3,-4,7,-4,0
-12,4,-3,-5,0,1,4,0,0
-3,13,5,5,-1,-4,-9,0,0
-3,-3,4,-2,-1,-3,-5,-4,0
15,8,-1,-7,-1,3,1,1,0
3,-15,3,3,-1,-1,-8,1,0
-7,-9,-7,2,-4,0,7,-1,0
3,14,-8,-7,-3,0,-1,0,0
-13,-5,5,-1,2,-1,-1,-2,0
11,-6,1,8,-3,-6,-11,2,0
1,3,4,6,1,1,0,7,0
1,4,2,-2,-2,5,29,1,0
-2,1,-6,-7,-3,-6,-16,-2,0
1,1,-3,-23,-2,-4,-13,1,0
15,-19,-1,26,2,0,2,3,0
-8,15,6,0,0,-2,-10,-6,0
6,-13,-2,2,1,1,12,0,0
0,13,-7,-27,-4,2,13,-1,0
-11,-17,-5,13,-1,-4,-14,-5,0
25,-1,-1,-2,-2,-2,-3,4,0
-14,-5,-1,0,-3,5,5,-1,0
5,-8,0,-4,-1,-5,-15,-3,0
3,-3,1,-8,-1,1,0,5,0
9,3,1,9,1,0,5,1,0
-19,8,-1,-7,-1,-3,-10,-3,0
-11,-3,-7,9,-1,1,9,-2,0
-8,0,2,-10,-1,-1,-3,-2,0
18,11,0,-6,1,2,2,0,0
6,16,4,14,1,-3,-8,1,0
-10,-16,-4,5,0,-4,16,-6,0
-7,-3,-6,-25,-4,6,-5,-2,0
-8,-5,3,27,-3,-12,-28,-1,0
12,-2,4,-4,2,7,16,4,0
9,1,-1,8,-2,-6,2,4,0
-17,-5,-1,-4,-1,-2,-3,-4,0
0,-4,-12,-36,-4,2,-4,0,0
3,7,2,15,-5,0,6,-1,0
-9,-7,6,13,2,0,-5,-1,0
7,7,-4,-8,-1,-1,6,-1,0
1,-2,-3,-2,1,6,8,-2,0
5,0,-1,-4,-3,-13,-13,4,0
17,-19,7,-1,2,6,11,5,0
-26,2,-4,2,-2,-6,-8,-9,0
-7,51,1,4,-1,1,0,-2,0
-10,-24,-4,-8,1,1,-2,-4,0
5,-4,-3,-5,-2,2,5,3,0
-1,-15,3,11,1,-8,-2,1,0
-7,-20,-7,1,0,-4,-8,-2,0
7,20,6,-8,0,2,3,-1,0
-4,2,0,5,0,-1,-5,-3,0
3,-4,-3,-1,-1,1,-3,-1,0
-20,-17,3,-28,-3,-1,10,-3,0
-7,2,-8,11,-2,-2,-6,-1,0
-5,-4,3,17,1,9,35,1,0
8,10,2,-3,0,-3,-27,-4,0
6,-1,-2,-2,-1,-10,-20,4,0
28,-5,-2,-14,0,0,8,1,0
-17,14,-3,-4,-5,2,-5,-2,0
-16,-24,-2,8,0,-6,0,-7,0
-8,0,4,7,2,5,10,1,0
4,30,-6,-6,1,-1,-14,1,0
11,-4,-4,1,-2,-1,6,-3,0
10,3,2,-2,3,2,10,6,0
-7,-19,-4,0,0,-1,-11,-4,0
7,0,9,3,0,3,8,6,0
1,11,5,2,1,-3,-11,1,0
15,2,-2,-2,-2,3,2,1,0
-14,-4,1,6,-1,2,5,-2,0
-6,0,-10,-12,-6,-3,-2,-3,0
-3,-11,-4,7,-4,-5,-12,-6,0
-3,1,5,16,2,1,1,0,0
28,9,3,14,3,3,11,3,0
-15,-5,-5,-5,-4,-4,-4,-3,0
2,8,11,-5,5,2,9,-2,0
16,-3,-1,-9,-3,3,-22,6,0
-4,4,-2,5,-3,-2,-8,-4,0
-20,-2,-5,-3,1,0,3,-8,0
-4,-2,-5,-8,-1,-4,-11,-2,0
-14,-6,-3,-4,-2,5,16,0,0
31,-4,2,-3,0,-9,-9,2,0
1,-4,-2,1,-1,-1,-5,-3,0
0,-2,-1,0,1,2,8,1,0
5,-1,11,3,4,2,11,3,0
-38,13,-19,-7,-4,-3,-12,-20,0
1,-8,-1,3,3,0,3,-2,0
-5,2,-9,-9,-4,-3,-8,-3,0
7,-3,3,5,0,0,6,-1,0
-2,-18,1,5,1,-2,0,-1,0
-7,-1,-3,-13,-2,-1,1,0,0
27,7,-1,-9,-3,-2,-6,1,0
-35,-8,-5,0,-2,6,15,-3,0
4,-16,-1,-5,-2,-7,2,8,0
14,29,-4,5,0,-3,-9,-7,0
-5,-10,5,-2,-1,-4,-6,-1,0
17,22,-5,-3,-2,0,5,2,0
-2,-2,7,7,1,7,9,-1,0
-16,-23,-2,-3,-1,12,-3,1,0
7,10,-2,1,2,-24,-39,0,0
-1,5,-5,-2,-3,-2,8,0,0
5,-9,9,-1,0,-2,-4,6,0
19,4,-1,-5,-2,4,13,1,0
-15,-9,-1,2,-1,7,8,-4,0
-19,-12,-6,1,0,-6,-12,-3,0
-2,-1,-4,-3,1,3,0,4,0
4,11,9,1,0,-4,15,3,0
12,6,2,10,0,2,4,7,0
15,7,-5,-13,-1,-4,9,2,0
15,18,3,14,0,9,-2,1,0
-44,-36,6,7,-1,-5,3,1,0
-28,-11,-19,-15,-4,-3,-10,-9,0
13,-1,2,-4,-2,-1,0,-2,0
13,19,-1,-9,-1,1,1,3,0
9,-17,4,21,1,0,-5,3,0
-8,-1,2,-1,0,3,10,0,0
9,4,-3,-4,-1,0,-8,-1,0
-3,5,0,-11,-1,12,45,-4,0
-3,11,6,7,2,-22,-48,-2,0
-3,-15,-4,-4,0,0,-8,-2,0
-2,4,-7,0,-1,-1,-7,-6,0
-22,-20,-4,-6,-2,1,11,-3,0
17,2,0,-3,0,7,23,3,0
11,10,0,4,1,-3,-7,4,0
-13,12,-1,-6,-2,-4,-7,-2,0
2,-7,3,6,-2,-6,-10,0,0
-5,-8,-13,-20,-1,7,20,-5,0
12,0,5,14,-2,0,-8,-1,0
-3,-5,3,-4,2,3,3,2,0
19,21,5,11,1,-2,2,3,0
-48,-53,-12,-1,-1,-9,-2,-5,0
-8,0,-2,-10,0,3,-11,-4,0
14,29,-1,-17,-5,-1,0,0,0
3,-1,-3,9,-1,-3,-13,-2,0
2,18,-2,-14,-3,0,2,0,0
3,-11,7,12,3,3,14,0,0
-13,-15,2,7,0,0,-14,-6,0
-8,-3,-6,-16,-1,2,5,-2,0
9,5,2,15,-1,0,-14,3,0
-9,-2,-5,-7,-1,-10,-9,-1,0
21,1,1,1,0,-1,3,-1,0
-7,1,-4,-5,-2,-1,-7,0,0
12,-2,-3,-3,-3,2,3,-2,0
-5,8,-7,-18,-2,6,4,0,0
-3,-6,12,21,-1,-9,-7,0,0
-3,-12,-2,3,0,1,-1,-1,0
20,16,4,1,-2,-5,-7,2,0
-26,-15,-7,0,-2,-2,0,-4,0
3,4,-7,-9,-2,8,11,-4,0
-20,-12,-4,-13,-4,-16,-12,-3,0
0,6,4,10,1,4,-6,-1,0
5,1,-2,-16,-3,-1,5,-2,0
4,-21,3,22,4,3,7,5,0
-6,0,10,4,2,3,-1,-2,0
1,-9,-18,-13,-5,-2,-17,-10,0
-16,24,-1,-2,-1,4,21,-1,0
-24,-12,-8,-14,-3,-4,23,3,0
10,1,1,10,-1,-11,-40,-2,0
4,-8,7,-2,3,4,12,3,0
11,-4,4,12,0,2,-1,0,0
4,8,-6,-5,-3,-3,-1,0,0
18,5,4,-3,-2,-2,16,3,0
-35,1,1,10,-1,6,-3,-5,0
15,-5,-8,-12,-4,1,-3,-1,0
-12,6,5,5,0,-9,-12,-2,0
-1,1,-5,3,-1,-1,11,3,0
10,8,1,-1,-1,-3,-1,2,0
0,-4,5,2,0,2,2,2,0
-5,-5,-6,-15,-4,0,-10,-2,0
5,-1,-4,5,2,1,-5,1,0
3,9,13,9,2,1,-3,0,0
22,-4,8,15,1,-1,13,4,0
-5,9,-1,-2,-1,0,-5,-1,0
-17,-7,-7,-9,-3,-1,-11,-5,0
2,9,-10,-12,-5,-2,4,-4,0
-6,-3,-2,-2,-3,-2,-3,1,0
8,-3,4,6,1,1,-3,-1,0
-3,-2,4,0,2,1,5,-3,0
1,-1,0,-1,0,-1,-2,6,0
22,7,0,1,-1,-1,3,-1,0
1,-13,2,-2,-2,-1,-2,3,0
-59,-19,-10,-3,-4,4,9,-12,0
-1,4,-5,1,-2,-15,-21,-1,0
-14,7,0,-11,0,1,1,-1,0
17,33,2,19,-1,3,2,1,0
15,-17,3,6,0,-3,-5,3,0
2,-11,-2,-14,-1,5,11,0,0
8,-1,-6,-10,0,2,1,4,0
-29,-6,4,7,1,-11,-10,-3,0
3,6,0,-4,0,1,4,-1,0
4,-9,2,8,2,2,2,0,0
-15,-3,-4,-2,-1,-2,-2,-2,0
14,-4,-5,-7,-2,1,-15,-6,0
-12,-3,-1,-1,0,0,7,2,0
2,-1,1,-5,-2,5,7,2,0
7,0,4,16,1,-11,-12,-1,0
2,0,-4,-8,-2,1,14,2,0
6,7,-6,-5,-3,-5,-24,-6,0
