-2,7,-1,3,-3,-1,-2,-4,6
13,-32,-3,0,-3,-5,-4,-6,6
-23,14,7,4,8,0,-2,-2,6
-20,-5,-7,-6,-8,-1,-2,-5,6
-1,-3,-8,-15,-1,-1,-4,-4,6
13,2,3,7,-3,-2,1,2,6
-2,-64,-14,-4,-4,-1,-1,-4,6
-27,21,3,10,0,3,-3,1,6
-15,-7,-1,2,0,-5,-1,-3,6
0,13,5,-4,5,-1,4,3,6
22,12,0,5,2,1,-3,2,6
15,-5,1,-10,-7,1,1,2,6
0,3,-4,1,4,-3,-3,-5,6
-5,-7,0,4,1,0,-1,1,6
12,24,4,2,-8,-2,1,3,6
-30,-21,-7,-6,9,-4,-4,-5,6
16,-3,-2,5,-1,3,2,5,6
4,10,4,-1,-1,0,1,1,6
-13,-2,-5,-2,-4,0,1,-1,6
48,8,4,-5,-4,-2,1,2,6
-36,-11,-6,7,-3,-1,-2,-3,6
-26,-13,4,-4,3,-1,-2,-5,6
-4,0,0,4,-5,2,1,1,6
-16,39,-6,-4,-2,-2,-7,-7,6
44,14,6,0,4,-1,-4,4,6
-63,-3,-8,-5,-6,1,6,-5,6
-17,-14,0,11,11,-1,0,-2,6
25,-3,5,6,9,-1,1,2,6
-13,13,2,-4,-9,0,-5,2,6
27,-8,-1,-1,3,-1,1,6,6
-4,0,1,-5,-5,1,2,0,6
-11,-20,0,-4,2,0,-1,-4,6
-7,9,-2,13,-2,0,2,-1,6
11,-8,-1,0,-2,0,-2,2,6
7,-10,0,-2,4,0,2,2,6
17,14,3,2,-1,1,2,3,6
-10,25,-7,-9,-5,-5,0,-3,6
12,1,11,-2,-4,-1,-2,-2,6
-7,21,-2,2,5,-3,-5,-1,6
2,-37,-2,-2,-7,0,3,2,6
3,-22,-1,-2,1,0,1,0,6
-39,16,-4,-1,0,0,-2,-8,6
13,7,2,0,-4,0,0,2,6
-9,-6,-3,-4,-2,-1,1,2,6
49,-4,-2,1,1,0,2,4,6
-48,41,-2,-7,-2,-5,-12,-12,6
-4,-11,-2,-16,0,0,-1,-2,6
-4,3,-1,20,-3,-1,-2,-2,6
4,-19,3,4,-3,0,2,4,6
31,-11,-1,-3,1,-1,2,8,6
2,9,2,2,-4,-1,0,0,6
7,12,-1,-9,0,2,0,-2,6
-15,-6,2,-1,-6,0,-2,-4,6
9,-16,-6,-17,-5,-3,-1,-2,6
-3,1,-3,11,3,-1,-3,-4,6
7,0,-3,-5,12,1,0,0,6
-19,10,12,4,8,1,-4,-2,6
-9,2,-2,-3,-8,-2,0,2,6
22,-1,-2,-3,-5,-3,0,-1,6
-23,-16,-8,-7,0,-5,-8,-8,6
-25,0,-2,-1,3,2,2,-2,6
42,-16,2,6,6,2,5,7,6
-61,-4,2,-3,-11,-4,-4,-10,6
-2,22,3,2,-6,-2,3,3,6
-8,9,-2,-5,2,-3,1,-5,6
-4,-22,-4,5,2,0,1,2,6
18,-1,0,-8,-2,0,3,7,6
1,-15,3,10,2,-1,-3,-2,6
-13,14,5,-5,-4,-4,0,-3,6
8,-4,4,12,3,5,3,2,6
-6,-21,-8,-1,3,2,-2,-1,6
38,66,-5,-10,-10,-4,-8,-10,6
-43,-33,-4,-12,1,-2,1,-2,6
5,-1,-6,10,7,-5,0,0,6
6,5,9,1,7,2,11,11,6
-4,-19,2,6,0,6,-2,3,6
17,-13,0,-2,-10,-2,-12,-8,6
11,38,-8,-13,-7,-6,-12,-14,6
1,-17,-11,-2,-2,-7,-4,-7,6
-6,-7,4,-1,0,0,9,11,6
39,21,6,5,2,5,13,10,6
-81,-97,-13,-4,0,-9,-3,-8,6
26,93,9,2,-5,-1,-7,-5,6
-9,3,-10,-12,-3,-5,-5,-5,6
26,2,-5,0,1,1,2,4,6
1,-22,-7,-1,2,6,11,-11,6
-25,-22,-8,-1,-4,-2,-22,-2,6
-10,-18,4,-2,-16,-5,-4,-6,6
-18,-32,-3,4,14,-4,-1,0,6
5,70,2,-3,1,38,12,18,6
1,-1,4,3,9,12,17,9,6
29,-17,-1,-2,-8,-56,-15,0,6
23,8,-4,-1,-18,-13,-23,-36,6
-64,-27,-6,-12,-26,-18,-11,-19,6
0,15,-3,-2,26,29,2,3,6
-18,-4,2,4,9,34,30,36,6
62,10,14,19,12,-23,16,9,6
-8,-5,5,2,-1,6,-14,-3,6
26,-3,-2,-4,-20,-18,-14,2,6
-26,13,-5,-2,3,26,0,-10,6
-17,6,2,4,11,39,23,21,6
95,13,0,-3,-2,-77,-12,3,6
-43,-41,5,6,-7,8,5,-4,6
2,-86,-1,4,0,-19,-8,-3,6
-71,107,-18,-19,-26,9,-17,-15,6
16,-4,-1,4,19,40,13,18,6
61,15,11,4,5,-15,18,28,6
-27,-28,3,2,2,35,-3,-44,6
24,-48,6,7,-5,-81,-7,6,6
51,50,-2,-7,-7,6,-16,-8,6
12,5,1,0,3,71,4,-8,6
9,37,6,7,14,-17,13,16,6
-20,-39,-11,-9,-5,14,9,12,6
31,-42,3,1,-10,-57,-19,-13,6
-71,5,-20,-12,-10,-20,-10,-32,6
-40,28,-6,1,14,114,9,17,6
-16,28,11,15,47,84,32,20,6
-11,7,2,-4,-34,-88,-27,17,6
6,-77,-18,-16,-34,106,-50,-81,6
61,56,0,-12,-23,0,-17,-7,6
-80,-19,-22,-13,-19,51,-15,-33,6
-19,0,5,12,52,75,47,23,6
25,29,11,12,21,-36,10,26,6
-37,-41,-8,-9,-22,-70,-12,-8,6
42,-16,-6,-6,-9,-19,4,0,6
-2,7,0,5,-1,3,3,-14,6
5,2,0,1,-2,-75,4,7,6
3,5,-1,-2,12,9,-3,1,6
-9,-1,8,1,-12,-17,-2,4,6
9,-14,-1,-5,-4,62,-7,-22,6
-8,16,0,3,20,-3,-5,6,6
-4,-6,4,7,4,-18,39,12,6
-7,4,-16,-11,-17,-41,-16,-9,6
43,29,3,-2,-6,16,2,-9,6
-17,-3,-4,-6,-14,-12,-18,23,6
10,25,18,24,33,76,17,-12,6
-13,-32,-7,0,18,20,27,1,6
-28,-18,-7,-13,-28,-62,-24,7,6
34,-33,8,-4,-23,38,18,-12,6
-46,19,-16,-9,-36,-6,6,-8,6
-3,-1,-3,-3,26,40,-69,-7,6
-22,-10,8,14,34,15,23,22,6
19,23,27,12,5,-43,0,32,6
64,36,-8,-9,-9,-4,1,-14,6
17,-14,9,7,-13,-3,-33,-5,6
-25,11,-12,-12,-3,-4,1,-1,6
2,-5,7,11,18,16,37,7,6
8,-34,3,-2,-1,8,23,2,6
45,41,7,0,-10,-30,-4,18,6
28,54,9,2,-12,7,-95,-5,6
-24,-13,-13,-3,45,97,35,6,6
-19,-18,-9,-4,17,-112,-33,7,6
-26,-63,7,-3,-40,42,-5,-12,6
25,30,-14,-11,-18,26,-33,-31,6
-28,6,-4,-1,-22,35,37,-28,6
-19,-45,9,12,22,8,43,24,6
82,30,7,2,10,-35,11,8,6
-69,-63,-24,-11,-9,14,29,-18,6
-28,22,-8,-6,-5,-38,-34,-8,6
37,41,3,-6,-8,-14,-26,6,6
-32,-56,6,3,0,-3,90,13,6
-45,43,9,8,9,27,-12,-5,6
57,10,-13,-8,-2,-18,-21,14,6
-27,-54,-1,4,10,87,-21,-20,6
12,46,-1,-7,-27,-55,-15,7,6
45,1,7,7,1,-19,-43,-21,6
-47,-25,-8,-8,2,-30,-11,-1,6
59,12,1,-3,3,49,20,8,6
19,15,0,7,27,56,12,7,6
-53,-28,-9,-6,-5,-42,37,-9,6
1,-6,6,7,-15,50,-39,10,6
-11,-21,-13,-16,-33,-72,-17,-25,6
-24,16,4,-5,-1,40,-27,-4,6
56,59,8,5,6,6,7,20,6
-2,-33,-1,1,3,21,10,-8,6
-1,41,7,5,4,-13,22,14,6
-16,-2,-3,4,1,-31,-2,-2,6
-36,-68,-2,0,11,40,7,6,6
3,-72,0,-2,-6,-27,25,6,6
0,84,0,-2,-3,-1,1,10,6
-71,-39,-3,1,10,34,-37,-26,6
19,-9,4,7,21,19,34,-11,6
14,-2,-1,-1,-8,-87,-65,13,6
-51,-59,-3,-6,-23,-69,-18,-9,6
44,35,2,-3,-3,39,37,18,6
17,9,-1,-4,-18,67,59,-13,6
-39,-18,-11,-5,15,-2,0,-26,6
60,25,9,7,4,5,-64,9,6
-45,-33,6,6,12,-3,-9,0,6
1,7,-8,-1,-5,-8,17,23,6
-1,95,-3,-11,-25,-13,-27,-7,6
19,25,-7,-4,3,19,-9,-11,6
-7,-26,9,6,15,-7,20,5,6
25,-5,13,6,5,0,-10,15,6
39,-21,-10,-2,-5,19,26,-1,6
-31,-4,2,0,5,25,18,11,6
29,19,0,1,-1,-53,-21,-28,6
8,-24,3,-1,-5,3,-6,15,6
17,15,-2,-7,-19,-88,-7,6,6
-10,-19,0,-3,10,44,-15,-15,6
49,17,8,6,-15,-9,77,16,6
-31,29,-2,-3,10,10,13,-17,6
-9,4,5,8,17,39,25,7,6
5,-48,-1,-2,-9,-56,-19,-7,6
25,39,2,2,17,29,-6,7,6
-14,22,-6,-6,-18,-15,-14,-10,6
38,-20,-1,-4,-9,29,3,-1,6
-28,-4,6,5,13,29,29,7,6
83,4,-8,-4,-6,-52,-32,-7,6
-42,14,8,4,1,5,3,7,6
-24,-66,-20,-9,-5,35,4,-18,6
25,-20,9,7,16,-30,-2,25,6
67,18,-9,-7,-9,-7,34,-2,6
-100,-41,-7,-1,3,-28,-100,-21,6
38,36,19,8,9,4,24,21,6
3,-13,-11,-9,-20,16,-15,-5,6
-66,-15,-3,-4,-6,0,-5,-11,6
61,0,7,2,-6,23,16,23,6
-16,7,5,5,14,-10,39,-10,6
10,7,-2,0,-8,-82,-9,17,6
-27,-8,-8,-9,-29,-26,-74,-2,6
48,16,4,-1,21,67,88,-16,6
-58,-2,-3,-2,-23,-75,-32,-8,6
56,-32,5,4,6,46,10,-8,6
-92,60,-24,-12,-5,0,7,-22,6
9,6,-15,-4,-6,-23,-29,0,6
-32,-27,2,5,12,35,5,1,6
-15,28,-4,-3,0,-5,48,-12,6
-20,-69,-3,0,1,18,-62,-1,6
27,0,5,4,2,-17,-17,12,6
32,-1,5,1,6,5,52,3,6
13,-12,-9,-3,-8,9,-9,-9,6
-91,45,-4,-7,-6,5,-30,-1,6
78,16,3,0,2,-13,28,23,6
45,38,9,1,-1,-15,-14,8,6
-81,-74,0,10,7,25,36,-12,6
42,-15,-11,-2,4,16,-19,-2,6
-7,-15,7,3,1,-24,-10,9,6
118,97,10,-1,-6,15,-1,3,6
-62,-62,-10,-7,-5,6,-39,-15,6
-18,62,-4,-7,5,13,33,0,6
-80,-30,-2,7,1,-17,9,4,6
-29,-43,-11,-3,0,55,-11,-5,6
86,31,2,-4,-2,-90,-14,10,6
-16,-25,24,16,8,4,46,15,6
-53,-97,-31,-13,-14,-2,-12,-38,6
-8,65,-6,2,12,31,-12,-21,6
11,31,-5,-4,1,25,-6,2,6
79,-2,21,7,-3,16,34,42,6
-15,28,9,2,2,-7,-41,-5,6
-40,-59,-21,-13,-5,-7,47,-12,6
109,0,27,14,10,21,-65,37,6
-74,42,-21,-10,-5,-19,-28,-44,6
-26,43,-18,-13,-7,6,12,-5,6
-20,14,3,-3,-3,-9,-18,-2,6
-14,-26,-11,-4,-4,-18,23,-6,6
29,-52,7,3,2,5,14,1,6
48,18,15,8,6,0,-31,17,6
-38,-29,1,-1,-7,-17,9,10,6
-21,43,13,12,-19,119,25,-5,6
-13,38,-7,-5,-2,-52,-13,0,6
12,-17,-9,-6,50,31,16,7,6
3,22,12,3,-17,5,-35,1,6
-22,-37,-7,-9,-4,53,50,-11,6
-6,-43,-6,0,-8,33,-14,-15,6
24,10,5,-1,-9,-29,-11,-5,6
46,-5,11,5,5,-34,-17,22,6
47,-16,26,16,10,12,4,13,6
-49,17,-48,-31,-15,1,-14,-44,6
51,-13,-11,-11,-10,-21,39,-4,6
-22,19,-7,-3,1,-7,-47,-9,6
62,37,6,-1,1,-11,-5,15,6
110,-64,44,34,29,15,29,33,6
-82,29,-7,0,-11,0,4,-18,6
31,-63,-37,-18,-16,-6,-4,-11,6
-21,63,-4,-6,-9,13,-12,-12,6
3,-35,2,0,-2,-101,-45,9,6
21,-2,15,9,23,57,39,19,6
-7,6,13,7,0,9,17,-4,6
-50,20,-14,-4,11,-18,18,-2,6
7,-3,1,4,-17,-26,-36,6,6
9,-28,2,1,1,-22,24,-20,6
42,38,16,8,6,23,20,18,6
-76,21,-14,-12,-5,-16,-35,-12,6
24,-32,-9,-5,0,32,-21,-5,6
77,-2,19,11,-9,8,8,21,6
-18,38,-9,-7,-2,-16,16,1,6
-12,6,-14,-7,-1,-5,2,-21,6
3,17,-9,-11,-4,16,-4,-3,6
0,-31,1,5,5,36,0,10,6
35,3,17,6,-9,-58,5,12,6
30,-7,3,2,-6,-2,20,6,6
-29,-14,-4,-4,1,14,-4,-9,6
32,6,4,1,-9,16,3,12,6
-42,-6,-2,0,5,48,-19,-7,6
20,-15,-6,-2,-6,-72,-46,-21,6
-61,-15,-2,0,10,26,42,-9,6
11,52,1,-2,-8,-9,-8,24,6
37,-19,0,4,0,-9,15,-22,6
-90,-22,-21,-11,12,0,-8,-16,6
53,-47,8,11,6,19,9,8,6
-39,31,-2,-7,-13,-30,-38,-5,6
40,78,1,2,-1,12,-12,2,6
21,-13,13,5,-3,30,29,14,6
64,-55,-15,-5,-1,-13,24,0,6
7,-32,-9,-5,-7,1,-15,-9,6
16,-19,2,3,0,2,7,4,6
-22,7,-3,-4,-1,-4,-34,-17,6
-1,34,13,7,5,55,12,20,6
8,-23,-10,-5,-4,-71,2,5,6
-22,-22,-11,-8,-5,34,-30,-37,6
32,-2,0,-1,-2,16,65,30,6
11,36,1,-4,-10,1,-43,-26,6
-12,-6,3,2,-23,27,4,1,6
-47,-17,5,8,32,7,28,20,6
-31,-14,-10,0,8,-30,-33,-17,6
-4,40,-4,-5,0,29,25,6,6
38,-3,8,2,0,-31,15,6,6
-27,-34,6,4,-13,-10,4,15,6
93,17,6,-3,-7,11,-32,6,6
-88,31,-22,-11,-4,-15,-2,-28,6
-32,-30,-11,-4,2,11,-2,-13,6
32,-2,0,1,0,-2,-37,8,6
15,0,7,4,1,-27,20,5,6
2,-1,4,-4,-3,-9,39,8,6
11,19,2,-3,-3,3,-24,-1,6
9,26,4,1,1,-14,-30,-20,6
-25,-3,-8,-2,-10,69,30,-6,6
11,3,9,4,5,-72,-8,13,6
-24,-24,-6,-1,12,-35,22,-1,6
67,-6,4,1,-7,-10,39,14,6
-77,14,-3,-2,-10,-12,-58,-9,6
19,40,-12,-6,-1,68,-13,0,6
55,-1,3,3,-1,-35,7,4,6
-47,-14,0,1,3,-1,7,-6,6
-79,-31,-4,-4,-1,-2,13,-13,6
37,-32,1,2,3,9,16,13,6
24,53,6,-1,-2,16,-35,-3,6
-26,-34,1,5,1,8,51,12,6
-5,38,-15,-4,0,5,-7,-8,6
-23,-14,10,4,12,-6,9,6,6
2,-2,-1,-2,-8,13,-2,9,6
-36,-26,-8,-5,-6,-20,-1,-28,6
44,-21,5,1,-13,-5,-7,8,6
-10,15,2,4,26,-7,-12,0,6
-6,8,1,0,-2,46,22,2,6
55,17,7,6,18,-20,-27,18,6
10,-35,9,9,7,10,11,5,6
-42,59,-23,-14,-26,-44,-19,-17,6
21,18,-1,-6,3,12,7,-6,6
-61,-55,-16,-10,-12,3,-23,-3,6
90,41,5,0,2,-2,5,7,6
-59,-28,18,10,3,20,20,4,6
9,30,3,5,3,9,2,1,6
-18,-17,-18,-11,-5,53,-34,-11,6
6,-12,0,-1,1,-80,9,1,6
27,-10,4,5,4,37,-2,7,6
-4,11,0,-2,-2,-2,-16,-11,6
-49,-14,3,-1,-6,-27,4,5,6
-16,-21,-10,-8,-2,17,-14,-16,6
0,-37,1,3,-3,38,21,11,6
-25,30,7,3,7,-19,-29,-10,6
1,12,-19,-10,-5,12,1,-3,6
21,37,0,-3,-4,0,34,5,6
-44,-51,-3,-1,-6,-23,-9,-2,6
13,-32,-2,1,3,28,26,15,6
-1,-6,4,2,0,-2,-19,-7,6
-19,21,5,2,0,-11,35,6,6
67,-66,13,6,2,-48,-15,6,6
17,67,6,5,3,5,-1,-4,6
1,20,-24,-16,-10,-23,-19,-6,6
-26,8,11,7,6,36,25,0,6
18,12,-11,-8,-8,-3,-10,-2,6
-55,-75,-1,3,1,-10,-7,-4,6
28,36,8,5,6,5,31,10,6
41,14,16,7,5,13,-15,8,6
29,79,-5,-4,-4,-13,-2,-4,6
-48,-12,-8,-7,-14,31,6,-8,6
4,-10,-4,-1,8,-6,5,2,6
-13,-26,-2,1,6,-71,-24,9,6
22,4,6,1,-5,19,-56,-13,6
-9,-20,-12,-8,-10,-8,75,-18,6
23,20,10,10,11,70,0,20,6
11,-1,1,-1,-4,-37,-14,11,6
-36,-8,-8,-6,-9,-15,47,-20,6
9,-11,-9,1,9,18,-61,-4,6
-24,-11,0,-4,-7,-57,-16,-5,6
45,11,-6,-4,-2,7,-1,-2,6
12,5,8,1,-2,10,14,8,6
-65,-90,-4,0,-2,5,21,1,6
-34,54,-14,-6,-6,-22,-7,-19,6
-19,12,-12,-9,-4,22,-29,-13,6
59,4,3,2,2,-5,6,-1,6
22,1,6,4,3,20,-1,4,6
10,-8,12,5,2,-46,5,12,6
-85,-21,-8,-7,-10,13,8,-10,6
11,15,7,7,13,51,14,17,6
9,-5,0,-3,-13,-73,-48,-25,6
5,16,2,0,-4,20,60,-8,6
55,6,3,-2,-9,-3,-34,5,6
-76,-79,-12,-3,11,14,-3,5,6
-27,-2,-12,-2,7,37,-17,-13,6
17,10,8,5,-5,-43,32,5,6
-39,-7,-5,-3,-4,16,7,-6,6
46,44,1,-3,-4,-21,7,2,6
7,-17,4,3,2,-1,-15,12,6
-28,-14,5,6,7,29,5,2,6
33,23,8,9,6,13,3,10,6
33,-59,-7,-4,-8,-13,-10,2,6
-50,12,-15,-9,-4,-13,11,-4,6
15,23,-2,-2,-4,24,-42,-18,6
-39,-4,6,3,6,6,12,4,6
27,25,1,-2,-4,2,2,0,6
55,15,6,1,1,-61,-3,6,6
18,-25,0,0,1,20,-5,0,6
-11,-8,-11,-5,-1,-1,-14,-18,6
-48,-19,-4,-3,-4,50,57,-8,6
-17,-1,-1,3,-3,-45,-14,9,6
52,39,1,-6,-3,19,-26,-2,6
11,6,-3,-2,7,1,25,4,6
-31,-34,2,4,4,-17,7,-2,6
20,20,1,-4,-10,17,-24,5,6
-50,-13,2,3,1,11,2,13,6
46,24,-6,-4,-6,-14,6,-6,6
5,21,-1,-1,-2,-11,-26,-14,6
7,-28,-7,-8,-5,-10,-17,2,6
32,5,6,4,2,-4,-13,7,6
-8,7,7,5,4,51,41,11,6
-15,-17,-1,0,-7,-42,-36,-4,6
-13,28,-4,-2,-2,12,35,-14,6
21,-9,1,1,2,2,5,5,6
-37,-80,-25,-7,1,-11,0,-8,6
32,43,4,0,-3,2,-16,-15,6
34,18,12,7,6,21,13,18,6
-16,-2,-4,-6,-12,-28,28,-3,6
7,34,14,5,9,19,-10,2,6
-20,-9,-4,-2,-10,-42,-59,-8,6
-4,-17,-7,-5,1,-32,40,6,6
-23,-32,-10,-9,-7,-5,8,-6,6
45,-20,0,1,-6,-16,-9,0,6
20,25,5,1,9,46,37,12,6
-100,-31,-5,-5,-18,-54,-44,-25,6
56,7,-1,3,12,12,4,2,6
7,-1,0,0,-4,-51,-11,-4,6
23,13,0,2,2,17,24,17,6
-24,1,2,3,6,24,7,5,6
-53,-33,-13,-10,-6,12,-21,-20,6
-3,0,-1,-1,-3,6,-27,-8,6
3,11,8,5,3,-11,16,-1,6
73,11,3,4,3,22,19,14,6
-38,-5,-3,2,1,-8,0,6,6
-23,0,2,2,1,10,-5,-22,6
-68,-51,0,0,-3,30,31,4,6
-19,12,-6,-5,0,-19,-62,-16,6
40,36,-5,-4,-4,-21,19,7,6
15,-7,-3,-1,-5,-2,-7,10,6
2,-1,-1,0,2,0,1,7,6
7,-6,7,4,2,46,5,-4,6
8,-10,6,3,3,17,9,5,6
-30,-27,-5,-3,7,9,-33,-12,6
14,56,-8,-5,-18,-55,-13,-2,6
24,-2,4,3,9,33,14,14,6
36,17,6,0,-9,-19,-14,-3,6
-58,-37,-5,-1,1,21,-2,2,6
3,-8,4,5,6,16,12,4,6
-76,-23,-18,-12,-10,-14,-12,-30,6
66,57,1,-3,-7,-7,-21,-5,6
-27,39,7,0,-4,-1,2,0,6
28,-28,-4,-2,0,-7,-11,-8,6
69,37,9,5,5,1,33,22,6
-61,-77,-10,-3,0,7,-24,-9,6
1,10,-7,-8,-8,-22,-50,-10,6
1,21,9,5,-8,12,8,13,6
21,16,8,3,12,6,35,1,6
-25,-30,-8,-4,-2,15,-3,2,6
-10,-10,-3,-1,-11,-93,23,5,6
-6,26,-5,-6,3,37,-9,-11,6
1,23,2,-4,-15,-84,0,-8,6
-34,-12,4,7,7,33,9,-3,6
24,7,-4,0,5,24,-8,5,6
10,-10,-2,-3,-4,-6,-6,2,6
6,-6,4,4,-3,-14,13,6,6
52,20,1,-5,0,-6,6,3,6
-39,-9,0,1,-4,11,1,-7,6
11,16,-8,-3,2,1,-6,0,6
-12,-6,2,0,4,29,-1,5,6
-29,6,-3,-2,-3,-23,-9,-7,6
38,20,1,1,8,30,12,-2,6
-24,-8,0,0,3,-6,48,11,6
10,-16,-1,0,-1,2,-46,1,6
25,3,2,2,0,-21,4,8,6
8,6,0,-3,-10,16,-27,4,6
-23,-27,-5,-2,3,-24,29,-15,6
27,22,-5,-4,3,15,-2,3,6
-31,-22,1,3,1,0,-37,-15,6
-24,-26,-6,-6,-6,-1,30,5,6
-17,-32,-1,-1,-1,-1,-28,0,6
-5,13,-6,-2,-2,65,23,-7,6
19,33,-2,-5,-10,-68,-14,8,6
-6,16,-2,1,4,-7,11,-4,6
-8,-31,0,2,0,-9,-24,-6,6
-16,15,4,3,6,8,-6,8,6
-8,-37,-7,-2,-5,32,16,-11,6
52,7,8,2,-3,1,10,-7,6
65,0,4,0,6,-6,-25,7,6
-70,-13,4,3,-4,-7,-12,0,6
17,45,-4,-3,-3,-12,-5,-6,6
-31,-33,-7,-3,0,0,42,-4,6
15,34,-3,-4,-3,10,-44,-1,6
28,-10,5,5,1,7,-15,14,6
27,-26,9,5,8,72,4,0,6
-28,-14,-5,-3,1,-68,-4,-7,6
10,28,2,2,-7,-22,63,10,6
14,5,-1,-2,1,48,-13,-14,6
-16,3,3,3,-11,-96,-25,3,6
53,-7,-7,-4,-6,53,-11,3,6
-59,-15,-1,-2,-2,-3,5,-2,6
15,-29,-11,-9,-5,-4,3,-7,6
-27,-14,5,6,14,35,5,3,6
9,79,4,-2,-3,-6,-17,-3,6
-27,-7,2,1,-2,-20,-6,-2,6
45,-36,-4,-2,2,26,56,5,6
-35,3,-2,-2,2,-4,-15,0,6
-7,-31,-2,-3,-4,-32,-31,-6,6
-2,-19,-6,-4,-3,18,15,-1,6
23,46,6,4,3,12,20,10,6
-17,7,-1,-5,-6,-12,53,3,6
38,25,11,10,10,19,-13,16,6
-33,-49,-13,-8,-2,25,-42,-35,6
9,7,-4,-4,-6,-40,-1,-5,6
30,16,1,2,4,-2,15,17,6
2,15,5,5,4,2,12,-2,6
-18,2,-4,-2,2,4,-53,-4,6
-18,-13,-6,-5,-1,4,-20,-4,6
-1,20,-1,-1,-4,40,10,2,6
3,-23,-2,-1,1,-31,33,7,6
19,9,5,4,0,2,7,2,6
-47,12,2,0,-4,-5,-10,-11,6
34,-34,5,4,5,-1,-8,-4,6
-74,4,-1,-1,-4,-1,-21,-3,6
39,62,-5,-7,-9,-19,-3,5,6
-24,8,-4,-4,-7,-9,23,4,6
-65,-101,-16,-5,4,7,-17,-17,6
20,34,0,-2,-1,16,-12,-1,6
65,1,2,1,2,-10,-1,16,6
-67,-16,4,0,0,1,-9,-3,6
20,-19,3,2,-2,25,-14,-6,6
9,22,-4,-3,-4,-68,-6,-1,6
-40,11,0,-1,1,15,8,-6,6
59,10,2,-1,-5,-37,13,-6,6
-27,-5,-4,0,0,17,5,7,6
34,-22,2,3,2,71,19,-1,6
-11,26,3,4,5,1,38,-1,6
18,-9,2,4,6,-12,-22,6,6
7,6,2,-1,-12,-29,-8,6,6
-25,-18,-5,-4,-3,7,-19,-18,6
14,-8,2,2,6,18,0,5,6
-2,-9,-6,1,1,0,-3,-8,6
25,21,3,0,-1,-7,13,13,6
3,-33,-3,-2,1,26,42,0,6
-16,-5,2,-4,-6,-19,-32,-15,6
-11,14,-10,-6,-9,-4,10,2,6
22,12,2,-2,5,10,10,-3,6
25,-25,7,6,4,-16,-36,10,6
-9,12,3,1,-2,5,-12,-2,6
29,-36,4,0,-3,-40,9,8,6
-82,-23,-14,-5,-3,17,1,-22,6
28,28,-2,0,-3,-14,9,1,6
6,6,5,2,12,22,7,0,6
11,11,2,-2,2,-12,-4,0,6
37,-5,3,1,-2,-8,2,5,6
-89,-38,-8,-7,-7,8,3,-5,6
40,2,-4,-4,-4,32,0,6,6
-19,-34,6,6,6,-45,43,-12,6
37,64,7,3,5,7,-47,9,6
54,21,-4,-7,-5,16,44,3,6
-46,-22,-6,0,0,-7,25,14,6
17,17,-3,-2,0,31,-60,-14,6
-58,-4,-12,-9,-7,-21,-11,-11,6
0,12,9,5,3,4,-5,9,6
-1,-1,5,3,-2,6,10,2,6
57,-25,-3,-1,-3,8,16,16,6
3,-4,-5,-5,-8,-13,-9,-12,6
7,13,4,2,6,41,-21,1,6
-6,-17,-3,1,6,-47,15,-9,6
-2,19,0,-2,-8,-37,-5,8,6
29,24,-1,-3,-1,-4,-3,-4,6
-46,-34,-9,-9,-2,21,9,-13,6
11,-5,6,2,-6,15,1,1,6
4,28,0,2,5,9,-51,-2,6
13,55,-4,-9,-8,11,45,4,6
-11,-62,-4,1,6,-26,-3,-14,6
-28,8,-5,-6,-3,-33,-51,-5,6
8,-19,1,0,-4,25,30,15,6
7,-13,8,6,4,-2,-22,-3,6
38,-1,7,4,1,17,1,15,6
14,44,8,3,-1,44,5,11,6
-32,37,-11,-9,-11,-75,2,-11,6
-10,3,-2,3,1,-3,5,3,6
22,-7,-6,-5,-9,2,36,2,6
-28,-11,-3,-1,3,-7,6,-14,6
-33,-26,1,1,7,54,0,-3,6
-22,9,1,0,-3,-14,4,4,6
33,0,-1,-2,-5,-34,-38,-5,6
19,6,1,-3,-5,0,-10,1,6
8,-7,-9,-5,1,27,11,-13,6
-5,-23,-6,-3,-3,-3,9,-2,6
6,21,8,4,4,10,-29,11,6
18,-38,1,1,-2,-14,-6,2,6
55,19,6,3,-4,-23,-17,8,6
-56,30,-4,-2,-2,9,14,-17,6
-27,35,-9,-4,-6,-13,9,-4,6
30,-10,-1,1,5,-4,13,7,6
-14,-48,7,5,11,27,-31,5,6
48,-9,4,4,2,1,-6,4,6
-62,2,-3,0,2,13,-6,-7,6
9,6,-2,-3,-12,-41,7,-1,6
-33,-5,-6,-3,-10,6,5,-7,6
15,-8,2,-2,7,28,7,1,6
-3,23,-2,-4,5,-15,-7,1,6
-25,-37,-1,-1,-10,-38,-4,3,6
2,1,0,-1,-2,-1,7,-4,6
5,33,-3,-3,-3,35,-30,-12,6
-5,-28,-2,0,-8,-68,-6,-5,6
37,5,-7,-6,2,19,45,16,6
5,-1,-4,-2,-4,-26,-7,-2,6
-90,-72,-8,-4,-8,-16,-51,-14,6
33,18,-2,0,2,40,37,-1,6
20,23,1,1,4,-8,15,6,6
7,36,7,2,1,19,28,-5,6
47,-26,-5,1,2,-2,-8,9,6
-11,20,3,0,0,-4,-24,2,6
-21,9,-6,-5,-7,0,-16,-8,6
37,16,6,5,7,35,-8,11,6
-88,10,4,0,6,-26,-4,-4,6
-24,-36,-7,-3,-3,-2,-15,-7,6
9,29,-2,-1,-3,46,4,0,6
-6,-15,3,-1,8,15,31,0,6
45,-20,1,1,-5,-72,-44,1,6
-6,1,4,4,-3,21,-14,10,6
4,-16,-2,-2,2,-9,10,-16,6
-50,39,-4,1,8,113,28,-5,6
24,-15,-3,-5,-5,-67,5,10,6
25,-12,3,1,-1,24,14,-2,6
-51,-15,-1,-4,-10,-4,-1,-4,6
24,39,-1,-1,-5,-27,-25,-3,6
-25,-37,-3,1,7,41,44,0,6
15,23,4,0,5,-6,-7,7,6
15,-18,-13,-6,0,-11,-3,-14,6
-4,-40,-4,-4,-1,-11,-19,1,6
-2,35,6,3,-3,9,7,-4,6
-59,-21,-4,-2,-1,17,11,-7,6
17,15,2,4,8,10,-29,-1,6
-18,1,-1,-4,-3,-57,-8,-9,6
57,27,3,-2,-16,9,11,13,6
37,-22,-3,-1,5,-13,18,11,6
-82,3,3,4,14,57,-4,-3,6
0,-7,2,4,2,-32,14,-1,6
-12,-19,-5,-3,-3,13,8,-9,6
38,11,3,-3,-6,2,-12,13,6
-65,-52,-8,-3,-1,-19,-9,4,6
74,19,-4,-1,-2,4,-11,15,6
9,46,11,4,4,10,10,-7,6
-72,-5,-10,-6,-7,-5,11,-18,6
89,23,3,0,2,-2,-22,-2,6
-63,-49,-2,0,-6,-15,5,3,6
26,-63,4,7,7,3,19,11,6
27,88,7,3,4,14,-56,-7,6
-24,-16,-8,-6,-5,-23,5,-2,6
0,-13,-3,-5,-6,-18,-33,-3,6
32,18,4,2,1,15,39,15,6
-21,-56,2,5,1,-27,57,2,6
-7,22,-4,-3,-7,-28,-83,-16,6
-27,28,-7,-6,-5,6,3,-6,6
-13,-3,7,8,16,32,9,-1,6
27,-19,-1,-3,-6,-19,7,9,6
20,19,-4,-4,-3,5,-22,-5,6
24,-28,1,-2,-3,-4,23,-6,6
-8,46,3,0,3,50,-11,4,6
-20,-80,-14,-5,10,13,8,-6,6
20,18,14,7,-13,-25,12,5,6
63,79,1,-1,-4,13,-16,6,6
-34,-21,-23,-18,-11,-7,8,-26,6
-7,11,1,1,3,37,-16,-1,6
-10,-24,2,0,2,-10,9,2,6
6,-32,6,8,3,-4,12,8,6
11,28,2,0,-3,-3,-10,1,6
17,2,1,3,-1,-24,19,2,6
5,7,7,0,-3,13,11,7,6
-26,22,1,1,0,-13,-41,-2,6
22,-4,-6,-6,7,-21,-4,1,6
-37,9,1,2,-2,18,-21,-8,6
2,-9,0,-5,0,-17,12,9,6
14,-20,7,12,0,13,48,-2,6
-17,-25,-7,4,-16,-19,-47,-9,6
4,11,-6,-27,-11,-6,28,1,6
16,16,5,6,19,27,-5,-4,6
-32,-21,-10,5,25,-4,12,-5,6
9,1,7,11,-8,-12,8,5,6
30,28,14,5,-3,9,4,2,6
46,18,-3,-5,-11,-14,-13,3,6
-85,-70,-3,-12,-12,-1,20,-7,6
-5,10,-3,-4,4,5,1,0,6
-16,25,-27,-12,-9,-19,-35,-11,6
-14,-8,-3,-6,7,1,12,-3,6
27,3,0,1,-8,3,-20,5,6
15,-12,7,3,13,1,21,5,6
2,-5,8,4,-16,3,8,-1,6
-1,1,-1,-13,18,-2,3,-3,6
-7,1,-6,14,4,5,-2,-4,6
-19,5,-4,-1,-7,1,-1,2,6
24,-9,4,0,-5,-3,3,2,6
-12,-12,-1,-4,-38,1,-5,-5,6
1,8,-1,-8,17,14,3,1,6
-5,2,-7,-2,33,19,4,-1,6
-1,1,7,12,6,-57,-13,3,6
-8,-10,-3,-13,-11,23,8,-1,6
-19,-6,-2,8,-25,-48,-14,-7,6
17,3,-1,-3,-25,-3,-10,0,6
13,7,-2,-1,29,15,8,4,6
-15,-4,-2,10,12,10,14,-1,6
-2,-1,-1,-11,-6,11,-12,-1,6
8,-6,-3,-6,1,-15,1,0,6
13,-10,5,4,-9,11,-4,2,6
30,2,-3,-1,-5,-11,2,0,6
-60,11,-6,-21,13,10,-9,-8,6
-5,10,-7,14,-3,-11,2,-4,6
-3,-9,0,-1,12,10,2,1,6
11,-13,0,12,1,0,-3,1,6
41,8,12,-3,-6,3,6,9,6
-3,-14,-5,-11,-37,-1,2,0,6
-11,-26,-7,-4,1,-7,-14,-7,6
-27,14,6,9,61,-3,10,-1,6
3,3,-7,-1,0,12,-5,-3,6
14,15,7,-3,-1,-15,-3,4,6
27,3,1,-1,-29,5,-5,6,6
-46,-8,-1,9,-33,-8,-3,-5,6
15,14,-9,-10,12,17,25,-3,6
35,-1,4,5,15,-18,-33,1,6
-5,-1,-3,-9,-20,-5,5,4,6
-1,7,0,0,40,8,-12,-6,6
-9,-5,2,7,-9,-5,-15,-2,6
18,-6,8,-1,-7,12,11,3,6
-15,-3,-6,-5,-31,0,16,-2,6
2,51,-8,-6,22,-8,-4,-3,6
0,0,-2,1,-13,3,2,-3,6
12,10,11,2,23,3,6,3,6
10,2,6,8,3,3,-7,-1,6
17,-28,-1,3,-28,0,7,7,6
5,-22,-9,-8,0,-6,-11,-3,6
-87,-15,-12,-9,-7,-8,-2,-12,6
19,12,1,4,11,0,-6,5,6
45,-17,3,-1,-14,4,10,10,6
-49,27,7,2,2,-5,-3,-7,6
-31,-21,-14,-9,-12,1,-6,-8,6
-27,1,-7,-2,17,4,0,-8,6
38,11,0,-1,-19,0,5,1,6
20,-28,3,6,20,-11,-7,5,6
17,10,2,2,-8,3,1,4,6
-7,4,-1,-3,10,4,5,-2,6
-20,-30,-5,-4,-17,5,2,-2,6
-10,-23,-1,-4,-10,-4,-8,-5,6
19,62,3,-1,1,-3,-4,3,6
-35,7,-12,-8,1,-3,-12,-11,6
-18,-19,0,0,1,3,1,0,6
43,0,10,7,4,-1,4,12,6
21,-21,9,5,6,4,10,6,6
8,-10,-19,-12,-30,-14,-16,-8,6
-112,-22,-16,-6,29,2,-7,-17,6
-3,-19,-5,4,-6,-1,0,-6,6
17,2,9,-7,2,2,8,10,6
30,14,16,23,3,3,3,9,6
22,-2,-4,-7,-14,-6,-3,1,6
-36,7,3,1,-2,1,0,4,6
26,-30,9,5,-1,-1,-4,-3,6
-11,48,-12,-10,5,5,7,-5,6
25,-20,-2,-4,-11,-3,-8,3,6
21,8,5,0,-26,0,6,6,6
16,5,-2,0,37,1,9,8,6
-15,-33,-4,-3,-1,11,11,-11,6
45,73,14,10,2,-12,4,4,6
0,-27,-4,-2,-8,-4,-22,-6,6
-27,-59,-9,-6,-11,-3,-1,-4,6
13,-11,19,14,21,11,12,12,6
-48,22,-1,-3,-22,3,0,-1,6
81,19,-1,-8,-34,0,3,1,6
-80,9,-30,-14,39,-3,-16,-21,6
0,-11,4,5,11,-1,-7,3,6
3,-6,0,0,-6,1,2,-1,6
4,2,4,3,3,1,3,2,6
56,-20,7,7,-19,7,15,18,6
-51,91,-14,-16,-8,-11,-18,-21,6
36,-18,2,0,5,-4,-1,7,6
-5,1,-6,-4,8,5,6,-1,6
62,39,4,1,-6,1,-3,-1,6
-81,-77,3,1,7,-6,-1,2,6
61,48,9,5,0,0,4,6,6
-23,-15,-9,-9,-1,-5,-11,-10,6
-65,-4,-6,1,-34,4,4,-7,6
79,-8,6,2,34,-2,5,8,6
-55,-38,-13,-2,-1,-3,-7,-8,6
-13,-41,11,7,29,17,19,3,6
-93,9,-25,-4,-29,-26,-37,-23,6
45,55,0,-14,-20,-5,5,8,6
-23,1,1,5,8,1,-2,-7,6
-32,-25,0,2,13,5,-3,1,6
13,-107,8,8,5,2,22,11,6
-36,79,0,-8,-12,-3,-11,-13,6
23,3,-4,-5,-2,-3,-2,4,6
-14,-5,2,1,-1,4,4,-4,6
35,-18,-2,-8,4,1,-4,1,6
57,23,-2,3,-1,-1,2,8,6
-37,-1,7,2,-1,4,8,-2,6
-58,-10,-12,-12,-6,-12,-13,-12,6
49,57,7,4,-17,3,4,5,6
3,-69,7,8,24,5,-2,1,6
27,36,0,4,21,7,-1,0,6
18,-12,-8,-7,-13,-7,-1,1,6
-28,-1,5,0,10,-9,1,0,6
13,-14,-2,2,-1,15,9,6,6
4,-4,5,-4,-15,-10,-20,-1,6
27,7,2,4,14,9,5,-1,6
-46,16,-23,-15,-13,-4,-13,-20,6
-20,-12,-5,-2,-5,-7,-5,-7,6
49,-14,6,0,1,2,7,7,6
-26,25,1,4,-5,-2,0,2,6
16,-7,-5,-3,4,2,-2,-2,6
-2,-38,-8,-14,-7,-2,-4,-1,6
-44,-36,-10,6,-9,-7,-3,-6,6
21,22,7,5,4,2,5,4,6
-4,-4,21,9,6,7,-1,8,6
4,6,-10,-8,-12,-8,-1,-4,6
10,26,2,-5,11,5,15,-4,6
7,20,-13,-9,-13,-18,-29,-3,6
-20,-7,0,-5,9,5,6,-5,6
82,-2,16,17,15,1,-5,19,6
-62,-73,-10,0,0,3,4,-10,6
21,103,-18,-20,-15,-8,-9,-16,6
20,11,7,0,-6,-2,2,5,6
1,0,5,-6,-8,3,3,1,6
32,0,0,13,-2,-4,0,3,6
-40,-40,7,1,10,5,9,6,6
31,16,0,6,0,0,2,3,6
-5,80,19,3,0,3,8,3,6
46,-37,-14,-11,-5,-1,-2,7,0
-76,-3,-7,-6,-5,-9,-18,-27,0
55,0,-4,-4,2,-1,7,1,0
-18,-55,-4,5,-6,5,5,-1,0
-28,16,-1,-7,-3,-9,-5,-6,0
36,0,7,-10,9,2,11,15,0
-14,3,2,17,7,9,3,1,0
-29,-22,-6,1,-17,-18,-32,-15,0
19,0,8,3,6,9,12,9,0
41,25,3,4,11,5,15,8,0
-28,-2,1,-9,2,-5,-7,-4,0
4,-17,-5,0,3,0,1,-2,0
-37,20,-1,-4,-17,-2,-11,-4,0
38,-21,10,7,3,0,2,8,0
-8,28,-9,-4,-15,1,-3,-6,0
3,-27,-8,2,-1,-1,4,-1,0
59,-9,7,-3,4,-5,-4,4,0
-93,-57,-10,7,1,6,6,-8,0
7,7,16,-5,2,-2,3,11,0
-39,-5,-5,-3,-1,-2,-5,-8,0
-13,-10,-8,-3,1,-1,-1,-5,0
46,-13,-1,-13,-2,0,3,10,0
15,23,2,16,0,-2,-3,0,0
-37,-25,-4,-7,-2,-5,-3,-5,0
-11,5,0,-3,-8,-2,-1,-5,0
3,1,3,7,-5,4,-3,3,0
35,23,5,-5,12,-3,8,4,0
-36,-20,-4,-1,-10,3,1,-8,0
10,30,-3,-3,10,-2,-2,-1,0
12,0,-2,1,-17,-7,-6,0,0
13,-15,4,5,14,2,5,3,0
12,-20,8,8,-1,4,3,4,0
-19,53,-3,-18,-10,-3,-7,-5,0
-29,-39,-15,15,-3,-6,-10,-15,0
-19,32,-4,-7,-11,-4,-6,-9,0
35,15,3,-6,9,3,7,6,0
23,-22,-2,9,-1,2,1,5,0
26,19,11,-8,3,-3,3,8,0
-87,-47,-2,14,-4,-1,-10,-20,0
1,23,-7,4,5,-2,1,1,0
37,-3,7,0,0,-1,11,6,0
6,30,0,-1,2,7,11,2,0
12,-19,-7,-12,-5,-10,-16,-2,0
-5,24,6,-1,1,-4,2,1,0
-9,5,2,6,-4,-2,-5,0,0
-8,-38,-2,1,3,-2,2,-1,0
13,-59,-1,-3,-16,3,4,6,0
-10,41,-9,-6,-14,-6,-8,-7,0
-21,18,-3,-3,33,0,-7,-7,0
16,4,7,7,6,6,2,2,0
7,13,-3,-5,-6,2,1,1,0
-11,-22,2,2,-5,-1,1,4,0
-22,-23,0,-18,-15,-3,-1,0,0
15,30,-2,17,-3,-4,-6,-7,0
-9,-2,1,1,0,-2,4,2,0
64,-13,15,11,8,7,9,11,0
-78,-39,-12,-6,3,-6,-18,-20,0
-22,-2,-15,-14,-3,-3,4,-12,0
27,30,-3,-10,0,-2,4,6,0
20,-6,3,10,2,1,1,0,0
22,2,13,4,-2,2,0,6,0
17,3,0,1,1,-3,-3,4,0
4,4,-1,-4,1,2,2,1,0
52,-15,5,-1,4,6,1,13,0
-11,-17,-4,8,-4,0,-4,-19,0
-40,35,-17,-19,-17,-17,-2,-5,0
7,14,1,-2,-10,0,2,0,0
-14,-11,-5,0,33,-2,-6,0,0
29,-6,7,9,-2,4,9,5,0
27,-8,4,3,2,8,5,7,0
-9,-9,-2,-18,-5,-3,-4,-5,0
-12,7,-1,16,-11,-3,2,-2,0
-9,2,0,0,-16,-2,0,4,0
55,6,10,2,10,-2,-8,2,0
28,31,-4,-11,14,0,12,0,0
-89,-68,-6,7,-1,4,-4,-5,0
-8,43,-18,-18,-9,-9,-4,-10,0
6,-6,3,4,-6,0,-1,4,0
6,3,7,3,6,2,0,1,0
20,5,-5,-12,-4,-1,1,-3,0
2,-8,1,7,-2,0,0,7,0
-12,-4,7,-3,1,1,1,2,0
25,-6,-6,6,-3,-1,-6,-1,0
-4,24,10,-5,-3,0,-2,8,0
-21,-32,3,9,4,-3,0,-1,0
-35,0,-16,-11,2,2,-6,-20,0
15,-14,2,7,-1,4,10,7,0
-33,29,-4,-9,-9,-7,-4,-8,0
38,-2,-3,-2,-2,3,4,14,0
12,-13,7,5,3,2,-1,6,0
-23,-19,-5,-3,0,-6,-9,-6,0
16,3,-3,-12,-5,-1,3,-2,0
6,5,5,19,0,0,-2,-2,0
-12,-3,0,-1,6,-2,0,1,0
-11,4,2,6,-6,11,0,3,0
39,18,4,-6,16,-11,-5,3,0
9,-11,6,0,-2,0,16,3,0
-29,24,-20,-6,-11,-3,-10,-6,0
-18,-20,-3,-6,-6,-2,-8,-5,0
-2,22,-9,-7,-9,-4,-6,-7,0
20,-10,-2,-1,0,2,1,3,0
24,10,18,15,4,3,10,8,0
-6,-8,4,5,7,-1,-1,-2,0
-7,-11,-7,-1,-6,0,-3,-6,0
-12,9,0,-4,7,0,-2,1,0
8,-8,1,-7,-9,-2,-3,2,0
-19,5,-6,-1,2,-2,-3,-3,0
45,-2,3,4,-5,1,-5,-1,0
-34,4,-2,-9,5,6,14,-3,0
5,-23,2,2,8,3,-5,1,0
-25,20,-14,-9,-1,-13,-7,-10,0
-8,3,-7,3,-9,-1,-2,-5,0
14,-1,0,7,-7,-2,-8,0,0
7,-1,1,-1,-1,0,3,-2,0
8,-2,5,9,4,2,3,6,0
-6,-3,0,-10,-8,1,4,-1,0
-6,8,-4,-5,-6,-3,-4,-2,0
0,-14,0,3,5,2,2,-3,0
25,-7,0,1,10,-1,-1,4,0
-30,0,0,-2,-10,0,-2,-8,0
-52,-40,-11,-6,9,-2,-7,-8,0
24,16,4,2,-10,-1,6,7,0
66,30,3,-4,-6,-1,4,1,0
-36,-10,-7,-1,9,5,6,0,0
11,4,7,2,-6,-1,-2,4,0
-13,-15,-5,-5,0,-4,-14,-4,0
6,-10,4,7,2,4,6,3,0
16,-11,5,6,3,-1,0,2,0
41,45,0,-6,-5,-4,-8,3,0
-89,-30,-13,-7,-27,3,7,-15,0
-32,-16,-3,-26,26,-4,-12,-2,0
26,11,2,26,11,-1,-9,3,0
18,1,2,2,7,2,11,3,0
22,13,5,4,7,-1,0,4,0
-17,-3,-3,-1,-16,1,3,-3,0
-11,-3,-4,-12,-11,-3,0,-4,0
23,3,1,1,2,0,-14,0,0
22,20,2,1,13,-2,4,3,0
-27,-46,-7,5,-16,0,2,-3,0
11,-31,1,-5,8,-3,-1,-1,0
2,51,-2,3,-8,-3,-1,-5,0
1,-1,-3,-7,0,-5,-3,2,0
-7,18,1,4,1,-1,0,1,0
15,-3,-5,-1,-4,0,1,3,0
16,-24,9,-2,-4,-1,12,3,0
-46,5,-1,-2,0,-5,-7,-3,0
27,-1,5,8,0,2,2,4,0
-21,-4,-8,-8,-7,-1,6,-5,0
-6,-9,-6,-9,9,4,-5,0,0
26,46,-4,-1,14,-14,-26,-6,0
2,11,1,3,-3,0,1,1,0
-11,-6,-2,10,-2,-4,-23,0,0
-39,-30,-4,-4,-1,5,18,-6,0
26,4,3,4,-15,-3,16,6,0
-8,-15,1,-5,3,1,-5,0,0
-9,0,-2,-5,8,2,4,-4,0
-25,12,-3,-2,-6,-4,-11,-2,0
-2,-22,-3,-6,-13,5,2,3,0
-5,3,4,5,5,-3,-3,-6,0
12,27,11,2,5,3,16,7,0
3,-14,-8,2,-4,-1,-5,0,0
-30,-4,6,-2,-3,0,1,-1,0
11,4,0,3,0,2,2,5,0
10,-8,-4,4,-7,0,5,2,0
1,34,8,-4,9,-4,-6,-2,0
41,4,2,3,3,2,-1,-2,0
-88,-38,-18,-4,-4,-3,-9,-13,0
-17,-3,-3,-9,-1,-1,-5,-9,0
32,-27,0,-15,1,-1,5,4,0
1,17,2,14,-1,-1,-4,-2,0
-4,47,1,-1,-1,1,2,2,0
7,27,-1,-22,-9,5,10,-3,0
-4,-16,-2,14,-2,-19,-16,1,0
15,-38,-3,-2,7,1,1,-1,0
-2,-21,-1,0,-19,1,8,-2,0
24,35,-4,1,24,-1,4,6,0
-44,-14,10,2,1,7,12,-5,0
4,-7,-2,-3,-4,-3,-4,0,0
18,24,-1,3,-5,-4,-7,-5,0
-10,-27,-2,-2,-5,-4,-9,-1,0
22,7,-2,5,2,1,15,5,0
-13,3,0,3,16,5,3,-2,0
7,-21,2,-7,-8,0,0,-1,0
3,-8,-6,-5,-18,-3,-3,-1,0
-8,6,1,7,12,-3,-8,-1,0
-5,-4,4,-4,-2,3,5,4,0
12,11,5,8,7,4,3,5,0
-1,-15,-5,-7,-5,-7,-5,-4,0
4,8,-8,-3,-11,-1,-2,1,0
-24,-25,-4,-15,-3,1,-3,-3,0
-3,-10,-6,5,8,-4,-3,-7,0
-29,-13,2,3,1,-1,0,-4,0
3,8,0,0,-7,0,-4,-7,0
19,3,1,-1,-3,-1,-6,-1,0
-1,8,0,0,6,0,5,6,0
11,3,-1,4,-20,4,4,-4,0
4,-5,0,-2,24,4,6,-2,0
-4,-19,-4,-1,3,-3,-11,-1,0
10,-4,2,-1,-5,-5,-4,0,0
-25,39,-2,0,-2,-1,-4,-4,0
-5,-11,-5,-24,-8,1,-2,2,0
-4,0,-2,19,-1,0,2,-3,0
-1,-7,2,1,15,4,0,4,0
-15,-5,-1,1,-4,1,6,-1,0
3,-1,1,-5,-12,-7,-12,-4,0
14,31,-4,-4,8,-2,0,0,0
-29,-26,-2,-1,-8,-2,-4,-6,0
1,-17,0,-11,6,3,1,2,0
-1,19,0,15,4,0,-1,0,0
21,-23,5,-3,-4,-4,-2,1,0
-11,17,-5,2,-1,-2,1,2,0
8,15,3,-3,-2,-2,0,0,0
10,-4,-4,1,-3,1,-4,-1,0
-20,0,-1,-4,-5,-4,2,-1,0
13,-2,2,-4,2,-3,-1,1,0
-6,-27,2,7,3,1,-8,0,0
-3,-9,0,0,-10,4,2,3,0
-11,10,-5,-3,1,-6,4,-3,0
26,11,-5,-8,-7,0,0,-1,0
-13,-2,2,-8,-2,-2,-3,0,0
2,-1,0,18,18,2,-2,-1,0
-12,0,1,-7,-6,4,-3,2,0
-1,-14,-4,0,0,-2,14,-3,0
23,6,7,4,1,2,-2,4,0
4,34,-3,-10,-19,-9,0,-7,0
0,-18,-7,-2,13,-5,-11,-1,0
1,-2,-2,-3,-6,0,-14,-3,0
-22,1,-2,11,-5,1,3,-3,0
-11,-37,-3,-6,5,0,2,1,0
22,23,1,5,-7,-1,3,1,0
-1,-5,4,0,-2,0,1,-1,0
22,5,2,1,7,-2,1,4,0
-24,-7,0,15,-5,2,-5,-6,0
19,7,-1,-6,-2,1,1,0,0
6,28,-2,-6,-4,-1,-4,-2,0
-2,-14,-5,-4,-8,-3,1,-2,0
5,1,3,-5,5,-2,-1,2,0
-10,-15,1,3,3,2,1,-2,0
-1,1,-5,4,-3,-1,-3,-3,0
-5,-6,0,4,1,-2,1,-2,0
-4,-5,11,-3,-1,2,6,4,0
15,37,-2,-2,-1,0,1,0,0
-33,-38,-17,-7,-4,-4,-12,-12,0
9,-4,-5,-13,2,-5,-5,2,0
26,-14,-1,7,0,2,6,5,0
11,7,7,7,-4,6,1,0,0
-58,24,1,1,9,-4,12,-4,0
18,-22,-11,-7,0,-5,-5,-1,0
-30,-7,-3,-5,2,-2,-10,1,0
24,-21,0,-1,-4,4,11,3,0
6,-8,1,-3,-1,1,7,3,0
-7,8,4,-8,-5,0,3,-1,0
13,5,-1,7,3,2,-1,0,0
-18,-3,-2,-4,-13,-7,-4,1,0
7,0,4,3,9,-1,-13,1,0
23,5,6,5,-13,0,13,3,0
-11,-3,-5,-9,7,0,-3,1,0
-10,-7,-13,-5,2,-1,5,-6,0
10,10,5,2,-6,-1,-2,0,0
1,20,9,10,8,0,-5,0,0
3,6,-4,-5,-11,-4,-2,-4,0
-10,-7,-2,-2,-7,-1,-1,1,0
13,-8,-3,-4,5,9,12,4,0
15,-1,-1,-11,3,-4,-15,-2,0
12,5,5,23,-25,-6,-10,3,0
-91,1,3,2,20,4,9,-10,0
-6,-45,-6,-5,-13,-3,1,-4,0
-33,5,-13,-3,3,6,3,-8,0
5,-28,-4,-12,1,-1,-2,-1,0
31,34,1,-1,-6,-5,-8,3,0
18,17,8,6,-5,0,-1,4,0
-7,-8,2,6,6,1,8,2,0
13,0,-4,-7,-1,-3,1,-4,0
-22,-35,3,-5,0,0,-7,0,0
32,44,6,16,2,-1,1,1,0
39,-11,-9,2,-1,-4,-7,5,0
-13,12,-5,-11,-8,-3,0,-12,0
-21,-18,-4,-3,8,1,-2,-4,0
-5,-6,-1,-6,-6,-4,-2,1,0
7,-1,4,5,10,3,1,6,0
28,13,0,1,-6,1,3,4,0
-14,-1,-1,-1,2,5,-1,-1,0
-1,-2,0,0,-1,-11,-9,2,0
-4,-1,3,4,3,-2,1,-2,0
-3,1,-2,-3,-1,-1,-2,-1,0
-3,-22,7,3,-2,-3,1,5,0
8,42,-10,-11,8,0,-4,-3,0
-14,12,5,2,-5,1,8,1,0
-60,-29,-13,-11,1,-4,-6,-13,0
35,-7,-1,-9,-4,0,4,5,0
7,-9,6,24,-1,-1,-6,3,0
-19,-2,-1,-3,2,1,-8,-8,0
-1,8,7,0,0,1,4,5,0
18,1,-8,-1,-5,-4,0,-5,0
13,-4,2,-7,1,2,15,1,0
-20,-22,-1,4,-2,1,0,-2,0
-26,-1,-6,-7,2,-3,-5,-3,0
-25,-2,-6,10,-4,-4,-5,-5,0
6,-3,-3,-2,1,0,4,2,0
10,-1,-1,2,-2,1,3,-1,0
20,2,9,6,4,1,0,3,0
22,5,-2,-4,-6,-1,1,4,0
-16,2,-2,-6,-10,0,4,-6,0
3,-14,-1,3,21,1,-14,-2,0
-13,10,0,-2,7,-2,0,6,0
47,-8,2,1,1,1,2,-7,0
-23,40,-8,-6,-10,-4,-2,-7,0
-31,2,-10,-10,-15,0,-1,-2,0
14,12,-1,-1,2,-1,0,1,0
8,-2,5,2,4,1,-1,4,0
16,-12,7,5,5,1,-5,3,0
22,8,9,1,-6,-3,3,0,0
-18,2,-4,2,-5,2,-1,-1,0
15,3,-2,0,-2,0,-1,3,0
-49,-16,-7,-22,0,-2,-5,-5,0
0,-16,3,22,-1,0,3,1,0
1,-13,-5,-2,-2,-4,-2,-5,0
-5,10,-3,-3,-3,0,-1,-1,0
19,4,-1,0,6,3,2,1,0
-13,2,1,3,-4,-5,-4,-1,0
5,7,5,-3,-5,-2,2,-4,0
-27,-22,-4,-1,-5,-6,0,-2,0
24,-8,0,-6,4,2,-9,2,0
14,-8,0,-2,9,7,27,5,0
-15,-4,-3,3,-3,1,-11,-6,0
-11,39,3,-4,-3,-5,0,1,0
-51,-70,-2,6,-11,-2,-5,-6,0
19,40,-11,-10,0,-7,-7,-3,0
-3,6,-3,-6,-4,2,1,-1,0
10,7,0,0,-4,0,-5,2,0
-14,-21,3,4,3,-4,2,3,0
-12,-4,2,1,3,1,0,-4,0
21,-3,1,-2,-5,-3,-5,2,0
10,3,-2,-21,-3,3,9,2,0
14,20,2,20,5,-1,-2,-2,0
-1,9,7,-21,-5,0,-3,2,0
8,-27,-9,17,2,1,2,-2,0
-37,-12,-8,-4,0,-4,-14,-7,0
6,1,-7,-7,-6,-2,8,-6,0
3,5,-2,-8,-4,-1,-1,-2,0
-2,-5,5,-4,-10,-3,2,2,0
1,-8,2,6,6,0,-4,-2,0
18,8,0,0,-9,3,0,3,0
-49,-12,-2,6,21,-3,-13,-3,0
26,0,0,-2,5,8,12,1,0
-14,8,-1,1,-13,-11,-15,2,0
-6,8,-2,-5,-3,-1,6,-2,0
15,-16,-1,2,-6,0,-2,3,0
-4,-7,-6,-4,-5,0,1,1,0
5,17,4,2,2,1,7,-5,0
13,7,3,-3,10,1,-5,2,0
2,10,-3,21,-9,-2,0,0,0
17,-2,12,5,10,2,-1,1,0
9,27,-5,-3,-1,4,4,1,0
-10,-3,1,-5,-1,-1,1,5,0
15,-13,-5,-4,-6,-1,10,-1,0
-2,0,-2,-4,-5,-4,-1,0,0
-14,-4,6,5,7,4,1,0,0
4,5,-3,-4,-4,-6,-6,-1,0
9,9,0,-1,-5,-1,0,-3,0
-8,-3,-3,-4,2,-1,-8,-3,0
-18,-12,2,2,3,0,6,0,0
28,19,2,4,-3,1,1,4,0
-19,-24,-9,-9,2,-1,-5,-6,0
-12,1,4,-2,-1,-6,5,-1,0
-10,-14,-3,4,0,2,0,-3,0
30,31,0,-2,-2,-1,3,0,0
-24,-27,-7,-28,-11,-9,-21,-3,0
-34,12,-15,23,13,3,-9,-9,0
0,-14,6,2,14,-2,0,0,0
-16,-7,10,8,-9,0,0,0,0
20,5,1,-4,-1,2,1,1,0
35,14,-3,-11,-6,-1,2,2,0
4,-11,-7,-3,-18,-2,-4,2,0
-10,-29,-3,-3,15,-2,6,-5,0
12,32,0,2,-1,1,0,-3,0
-13,-19,-1,-9,-21,-2,-2,0,0
24,33,2,5,21,-1,-3,2,0
-5,-14,0,-2,-2,-1,-4,1,0
-1,-4,1,10,3,4,6,3,0
5,17,7,1,1,-3,10,4,0
-5,-25,-9,-10,-9,0,0,-3,0
-1,-12,-4,-4,-1,-2,-5,-5,0
-18,4,3,3,0,-1,1,3,0
7,22,-3,-5,2,2,-3,-2,0
5,6,5,3,-17,-5,2,-1,0
-1,1,2,2,16,1,-1,3,0
14,-8,-1,-12,0,0,2,0,0
0,-25,0,3,6,4,9,2,0
1,48,-2,4,0,-5,-8,-4,0
4,17,-7,-5,-9,-3,-16,-4,0
-6,-8,4,1,-4,1,-3,0,0
-1,-13,3,-5,3,-2,-2,2,0
2,-8,-4,-1,1,4,0,1,0
-2,-11,1,1,-3,0,9,-4,0
-5,6,-4,-1,-1,-4,-2,-5,0
-13,-4,-2,-3,0,-3,-8,-2,0
39,17,3,5,8,3,5,4,0
-30,-13,-6,-3,-5,0,-4,-5,0
7,7,-1,3,-2,-6,3,0,0
-2,4,3,5,-5,-1,-1,-1,0
9,5,-2,0,1,-1,6,2,0
-14,-28,-2,-22,-30,-5,-2,-3,0
2,1,4,17,48,5,1,2,0
5,14,1,0,4,-1,-3,-3,0
5,-17,-1,-3,-4,-3,4,6,0
17,-8,-3,1,4,6,3,3,0
-31,21,-4,-17,-34,-1,1,-3,0
0,-17,-2,17,13,-5,-3,1,0
-39,-36,-7,-7,-4,-2,9,-6,0
3,18,-6,3,1,-3,1,-2,0
35,7,14,4,2,10,-8,5,0
-8,3,-7,-7,1,-9,0,-2,0
2,-16,3,2,-8,0,0,-1,0
24,8,1,6,2,-1,0,3,0
-11,-7,-3,0,-5,-2,1,0,0
-3,3,-5,-12,-2,1,-3,-2,0
-10,-9,0,3,0,-1,-4,2,0
2,9,7,-2,1,-1,-2,1,0
-3,-11,-5,-18,-11,-3,-2,-3,0
12,-11,5,18,4,2,1,3,0
-14,7,-2,-3,7,-2,-3,-5,0
4,9,1,4,5,3,-1,-1,0
20,16,-3,-3,-6,-1,11,4,0
-11,-6,-9,-14,-27,-1,-2,-6,0
-6,12,2,-2,15,0,-8,0,0
-26,-16,0,-1,-1,0,8,-1,0
20,-2,3,-10,-16,-4,4,2,0
1,7,-1,6,1,2,1,-2,0
-10,-7,-6,5,9,1,-5,-6,0
10,-2,7,1,2,2,7,-1,0
-25,-1,-10,1,-4,-4,-15,-7,0
26,-5,-1,-7,0,-1,-6,0,0
7,-14,1,-5,-14,-3,-4,1,0
-1,20,-4,1,8,2,10,3,0
-6,3,1,9,2,-1,-4,-2,0
16,-35,13,-1,5,0,4,8,0
-73,9,-11,-3,-8,-6,-18,-18,0
-2,-6,-13,-2,-11,-1,-7,-4,0
0,-2,-3,10,6,0,6,-2,0
9,16,5,-7,1,2,2,5,0
21,-20,7,3,-2,1,4,6,0
0,-4,4,-1,-1,-1,-5,-2,0
-6,1,-2,3,2,-3,0,-1,0
-9,1,-1,2,3,-1,-4,-1,0
42,20,8,-4,-8,-3,17,8,0
-38,-41,-11,-3,1,-4,-11,-12,0
-24,-14,-6,-18,-7,-1,-3,-2,0
-24,5,1,12,9,-2,-3,-4,0
10,1,-9,-11,-4,4,3,-1,0
19,17,4,7,3,1,-1,7,0
13,-9,17,5,-27,-5,1,0,0
-6,1,-8,-10,26,3,-1,-4,0
-7,-35,1,4,3,4,0,2,0
33,25,5,4,4,1,7,11,0
-31,11,-12,-9,-4,-5,-5,-13,0
-8,-5,-1,-2,-16,4,13,3,0
16,17,2,4,0,-9,-17,1,0
13,-27,-2,-5,-3,1,7,0,0
0,-1,2,8,7,0,1,2,0
25,27,4,-19,-1,0,2,4,0
9,-21,0,11,0,1,-2,2,0
5,-20,-6,1,-7,-3,-1,-5,0
-11,6,-3,1,7,-1,1,-4,0
-12,10,-4,-1,-4,-3,-4,-10,0
16,22,2,-5,0,3,3,4,0
-1,18,1,-3,-5,-4,-10,1,0
18,-15,-3,-8,7,1,2,5,0
-3,-10,1,9,-10,-2,-1,0,0
1,13,1,-2,-16,-4,-5,-3,0
-8,0,8,7,22,-2,-4,0,0
24,8,9,5,12,10,5,5,0
-34,-13,-17,-10,2,-5,-18,-10,0
-4,10,-3,-5,-5,2,8,0,0
-27,-27,-10,-9,-7,0,-9,-5,0
0,-5,0,3,8,-2,1,1,0
20,12,4,-14,-36,-3,-4,4,0
5,2,1,25,27,0,9,-2,0
-11,1,0,-7,-5,-5,1,0,0
39,-2,2,4,-2,6,5,5,0
-46,-12,5,6,-1,-10,-3,-3,0
23,15,-5,-14,-2,3,6,-3,0
6,41,4,2,-2,2,-3,1,0
-49,-26,-14,-3,-4,-5,-5,-14,0
1,-11,-6,-2,0,1,0,0,0
-16,-21,6,-8,-4,-2,-4,1,0
6,7,0,18,6,1,2,-1,0
18,11,4,6,-9,-3,-3,6,0
14,-14,-4,4,18,4,7,0,0
-14,-10,10,3,2,1,-7,-3,0
-19,-10,-4,-10,-17,4,13,-1,0
-13,29,-8,-6,2,-6,-11,-3,0
-6,1,0,4,-1,2,6,-3,0
21,1,-10,-23,-25,-2,1,0,0
10,2,4,14,25,3,3,6,0
2,-12,5,7,0,-1,-5,-4,0
23,14,4,2,-18,0,1,3,0
-1,-13,-3,1,18,2,1,2,0
-14,2,1,-9,-14,-15,-17,-4,0
9,1,-2,2,3,3,15,4,0
20,17,3,2,-1,2,-4,2,0
-1,1,-7,-4,0,-2,2,2,0
-10,-6,0,-4,-8,-1,-6,-2,0
10,-1,7,5,11,1,-1,1,0
2,-12,-1,-2,3,0,3,1,0
-36,-33,-4,4,-5,0,-3,-6,0
-34,33,-4,-1,2,-3,-3,-6,0
6,26,-4,-12,-2,-3,-5,-2,0
2,-1,5,19,-1,5,1,4,0
-12,-1,6,1,2,-6,5,-4,0
10,-31,-3,-4,2,0,-3,0,0
-8,-34,1,2,-5,1,4,-1,0
-14,-5,-5,-11,1,-1,0,1,0
4,10,-8,-2,-2,-2,-16,-3,0
-6,7,4,0,-27,-1,-7,-3,0
17,3,1,-1,14,5,11,2,0
12,-14,2,2,25,-2,6,1,0
-2,33,4,5,-8,2,3,3,0
4,0,-6,-7,5,-1,-3,-4,0
-6,-9,-10,-4,-12,5,-3,-2,0
-16,-9,0,-3,-8,-9,-4,-6,0
10,6,7,4,5,0,4,4,0
-7,3,-4,-3,-2,1,0,-2,0
14,-15,0,1,-3,-3,-1,-2,0
-22,-1,-1,-2,4,0,-5,-4,0
27,13,-1,-3,-2,1,-9,-1,0
-8,-22,-2,-4,2,-1,8,-1,0
-18,0,4,12,1,0,5,-3,0
18,38,-2,-1,-1,-2,-2,2,0
-35,-9,-6,5,-2,0,-3,-6,0
19,-7,-1,5,-6,-2,-4,-2,0
13,-5,8,-2,6,-3,-2,1,0
12,1,-3,-3,-5,3,0,2,0
-3,-14,-2,-5,-4,0,2,0,0
17,5,-1,-5,9,5,16,7,0
-26,-3,-8,-6,-24,-9,-17,-5,0
4,2,2,0,32,1,-11,-1,0
8,-11,-8,-5,-7,0,6,-2,0
-23,-3,1,-2,6,1,1,0,0
-1,7,7,2,-11,0,3,3,0
8,3,-1,-1,-11,1,2,0,0
-10,7,-1,-5,4,-7,-10,-5,0
0,1,-2,-1,-5,0,-1,2,0
-3,-2,-1,1,3,0,2,2,0
-8,-6,-1,0,-5,-1,1,-2,0
6,18,0,2,0,-3,-7,1,0
20,14,2,-3,-5,2,3,-1,0
-30,-5,-5,-3,5,-3,-3,-5,0
-17,-17,-2,-1,-1,10,13,-2,0
17,21,5,2,-6,-13,-7,3,0
32,1,1,-4,4,2,-5,-1,0
-18,7,-9,8,1,-6,-11,-6,0
16,24,1,3,-9,-3,0,2,0
-45,-35,1,0,-2,5,7,-2,0
-7,-14,6,-12,9,-1,-3,3,0
1,-5,-4,13,1,2,6,1,0
8,-9,-2,-6,-8,-2,-6,-5,0
9,-2,-9,-6,-2,-2,4,1,0
2,5,4,2,-13,-3,-12,2,0
0,5,3,-7,-13,-1,-1,-1,0
20,-1,-4,3,40,-1,-7,0,0
-28,-15,1,2,-1,4,14,-2,0
4,9,-4,2,-2,0,2,0,0
13,-3,5,-6,-8,-4,-2,0,0
-22,-10,-1,-1,-19,-4,-2,-2,0
12,4,-2,-5,7,-1,-3,0,0
17,2,0,4,7,1,2,2,0
25,-5,-2,-2,0,2,-6,-1,0
-2,0,4,-2,-5,-6,1,-5,0
-11,5,0,-1,2,4,9,2,0
-7,5,-7,1,-5,2,5,-7,0
26,3,0,-4,4,-8,-7,3,0
-5,-14,5,-1,-6,0,-1,3,0
4,29,-3,-8,-8,-1,-10,-8,0
4,5,-1,0,8,-6,-4,1,0
-16,-4,-3,17,10,10,9,-1,0
-2,2,5,-8,1,3,1,1,0
12,-16,1,7,-1,2,4,6,0
-13,4,7,-5,-2,-2,-1,-2,0
9,-7,-6,-14,4,-2,-3,1,0
-22,16,-5,1,-15,-7,-6,-3,0
9,-17,-2,-4,12,0,8,-3,0
-22,-15,-7,3,7,2,-2,-4,0
0,-5,0,-3,-17,-3,2,1,0
9,-4,-2,-2,11,1,2,0,0
7,-9,-1,-23,-15,-1,-6,-2,0
8,14,0,19,3,-3,-3,2,0
-15,-18,-1,0,-4,0,-1,-5,0
-13,-6,-1,2,-3,-3,3,-5,0
12,15,-1,1,0,1,-3,1,0
-6,-18,0,2,-7,1,1,-1,0
22,4,-2,-10,2,-3,1,5,0
6,43,-10,-6,-5,-2,-5,-4,0
-12,-31,3,10,6,0,-4,-4,0
3,0,3,-6,-3,0,-1,-3,0
-51,-13,-3,2,4,0,-3,-7,0
-8,-19,-2,-4,-4,1,1,1,0
7,-15,-5,5,2,-1,-3,1,0
-20,-2,-2,-2,1,5,7,-2,0
11,2,2,-3,5,-3,-9,1,0
0,-2,1,1,-7,-2,2,3,0
4,14,2,4,-6,1,-2,0,0
0,-9,-2,5,-3,-5,-1,-2,0
6,-3,8,0,7,5,4,2,0
2,9,2,1,-29,0,3,0,0
0,16,-5,-6,22,-4,-15,-5,0
9,11,1,-3,-2,-1,-13,-1,0
-7,-6,-4,3,0,2,7,0,0
-4,-15,1,-5,-1,0,2,1,0
7,-10,2,2,-10,-2,4,0,0
-28,8,-5,-5,-2,-4,-1,-1,0
-2,22,-7,-6,0,-5,-13,-8,0
27,-20,6,6,10,6,6,5,0
-65,2,-9,-4,-11,-4,2,-13,0
4,5,-3,-1,1,-3,2,0,0
-10,-29,1,-2,2,2,3,1,0
-9,5,-3,-2,-13,-6,-9,-3,0
6,-13,4,4,23,3,14,2,0
2,0,1,-2,-6,2,-3,0,0
42,5,-1,-1,3,2,3,3,0
-25,-10,-5,0,0,-3,-8,-4,0
6,1,1,0,-14,-1,-3,3,0
6,1,1,-3,1,-1,-2,-1,0
6,13,-1,1,2,-9,-2,3,0
20,-9,-1,-2,4,4,10,2,0
8,-12,-4,-25,-12,-3,-1,1,0
6,6,-6,11,4,3,-4,4,0
-6,13,10,21,-3,-1,-3,-2,0
-2,0,2,2,5,-4,-7,-4,0
-17,1,3,2,2,3,3,2,0
20,-2,-1,-8,1,-5,8,6,0
-53,-12,-9,-12,-7,-1,-5,-7,0
-1,19,-4,-1,9,-4,3,-3,0
24,-4,2,8,0,2,-1,3,0
1,-20,-1,-5,-6,-3,-3,0,0
-20,19,3,0,-5,-1,-6,-1,0
4,-10,-2,-5,3,1,5,-3,0
35,11,1,5,4,1,-13,1,0
17,0,-4,-2,1,-5,-4,-6,0
-45,-19,-4,-4,-2,2,11,-4,0
-26,-12,-6,-4,-5,3,2,-5,0
13,11,1,2,0,0,0,1,0
10,6,1,-1,-2,0,-1,2,0
-9,-10,-1,-4,-8,-5,3,-1,0
0,-18,-2,0,-20,3,-5,-3,0
-7,-5,-1,4,20,-4,-19,-1,0
10,42,4,-1,-3,-1,0,-2,0
27,-3,-3,-4,0,-2,0,3,0
-5,4,0,-13,-3,-4,2,3,0
-12,-18,-6,19,-12,0,6,-1,0
-18,-23,0,9,1,-1,-3,-2,0
20,33,14,1,14,6,-3,2,0
3,-21,-2,5,3,-3,0,3,0
11,7,-3,-12,-10,-3,1,0,0
-24,-40,-7,-5,2,-1,-1,-5,0
11,52,-7,2,-6,1,1,-3,0
-38,-11,-4,-7,0,-2,-6,-4,0
1,3,-1,-2,-18,-3,-12,1,0
-11,-12,-3,0,28,1,9,-5,0
18,-25,2,-1,-6,-1,11,3,0
11,12,5,3,10,1,-3,1,0
-13,18,-3,-3,-6,0,3,1,0
1,-5,3,1,-10,0,-5,-1,0
3,-16,-2,-4,-1,-2,-7,-1,0
13,18,0,5,4,-3,1,0,0
-16,-7,0,10,0,0,3,-3,0
10,13,4,0,-5,-1,-1,-1,0
-10,-18,-7,-6,1,2,2,-1,0
8,7,-4,3,0,0,-3,0,0
-7,-4,9,-8,5,0,2,-4,0
7,16,-2,0,-9,1,-9,3,0
6,12,-7,-4,-4,-4,-1,-4,0
-2,2,0,-2,0,-2,0,1,0
24,0,-1,-1,-20,-1,2,1,0
-9,-13,5,-1,17,1,6,4,0
7,20,1,-1,1,6,0,-4,0
-22,-17,-6,-2,4,-13,-14,-3,0
20,8,2,1,-3,-1,8,2,0
-52,-13,-2,0,-10,-4,-3,-4,0
17,-15,-1,-14,9,3,-7,4,0
22,20,5,17,-2,2,7,2,0
-24,3,-1,6,4,3,9,1,0
8,-20,-2,-9,-8,-2,-1,-6,0
-5,-8,2,5,6,1,1,3,0
14,5,-5,-13,-4,-3,-5,0,0
4,-5,-1,-4,2,-2,-4,-3,0
-1,3,-4,2,-1,1,1,-1,0
-2,6,10,4,-5,-4,5,3,0
-1,9,2,-1,-3,-1,1,1,0
10,11,-3,-4,9,2,-7,-1,0
-11,-21,-7,-7,-3,-1,0,-3,0
10,-6,-7,-1,-5,-3,-4,-3,0
9,0,4,3,-3,2,5,2,0
-12,-2,6,1,5,3,2,-2,0
-14,-9,-7,-6,-15,-4,-4,0,0
2,25,3,-16,4,-3,-1,3,0
20,16,0,25,15,2,-2,-2,0
-24,-14,-4,-7,-5,-4,-3,-5,0
14,7,3,-2,4,5,2,4,0
-2,-19,-4,1,-13,-2,-5,-1,0
-12,2,-1,-1,-3,1,2,-2,0
-2,2,2,3,4,1,6,3,0
-31,-16,-3,-3,-5,-2,-12,-9,0
17,14,-6,11,-8,-10,10,0,0
3,-14,9,-8,18,5,-1,-1,0
-5,-3,-9,-1,1,-2,-5,-2,0
29,34,-1,1,-1,3,6,5,0
-31,-7,2,-3,-1,0,-10,-6,0
-12,-26,-4,-2,-6,1,-2,2,0
47,19,3,-2,-1,0,15,5,0
-27,1,-8,-6,-1,-3,-10,-7,0
41,-18,-6,-13,-4,0,-3,1,0
-29,2,-3,12,2,-4,9,0,0
-5,-38,4,2,3,1,0,3,0
29,4,1,2,-3,-3,1,2,0
0,14,-3,3,2,3,0,-2,0
4,14,4,-25,-6,3,0,0,0
-12,-19,-11,10,-4,-7,-7,-7,0
1,-7,5,6,-1,0,2,3,0
-14,-16,-5,5,4,2,3,2,0
16,5,8,-4,-14,-3,-4,-3,0
-12,8,-1,-5,-2,-1,-6,-3,0
4,4,4,-3,19,2,-4,2,0
-11,-13,-1,6,2,-1,2,-5,0
11,8,-10,-4,-10,3,5,-2,0
8,5,2,2,-11,-9,-8,0,0
-13,-4,3,3,-1,1,6,0,0
3,13,0,1,8,-3,-11,0,0
-2,-6,-2,-1,0,-2,13,-2,0
-17,-7,-1,-6,-10,2,1,-6,0
26,22,-1,-4,-26,-2,-4,-1,0
-23,-10,1,0,28,-5,1,2,0
2,-35,-1,2,-5,1,-5,-3,0
50,47,2,-15,6,4,9,7,0
-31,10,-4,8,-3,-4,1,-3,0
-44,-35,-1,-2,-14,-1,-4,-6,0
-17,6,-1,-1,4,2,-4,1,0
5,-16,-5,-1,6,1,-1,6,0
38,3,6,-3,2,-1,-4,-2,0
2,9,-1,-3,-10,-1,3,-1,0
-8,-6,1,-1,2,-1,-2,1,0
-13,0,1,1,4,2,-2,-1,0
15,-4,-6,-3,-3,-7,-5,-1,0
-6,0,-2,14,5,9,8,-4,0
7,25,-4,-3,-6,-14,-13,-5,0
-17,-17,-3,-3,-4,1,-4,-2,0
-7,-25,0,4,3,0,3,2,0
17,15,3,-4,-9,0,0,3,0
-2,8,-2,-2,2,1,2,1,0
6,3,1,5,5,-1,-4,0,0
29,4,4,-1,4,3,6,6,0
-35,-23,-5,-2,-8,-2,-6,-2,0
4,16,-3,-1,-2,-5,-9,3,0
5,-3,-4,-14,-1,-1,3,-3,0
10,-5,4,18,11,2,0,2,0
-1,5,-5,-1,2,1,12,-1,0
-48,-22,-1,-1,-5,-3,-8,-9,0
-14,-4,3,1,-1,-2,-1,-1,0
1,7,-4,-10,-6,0,-3,0,0
27,7,0,4,1,-1,-3,5,0
-1,-4,8,4,6,0,1,0,0
-45,3,-5,-5,-13,-4,-8,-7,0
-21,19,-4,-10,4,0,2,-8,0
-3,-8,0,13,3,-5,0,-1,0
8,-14,-3,1,0,6,5,-1,0
13,0,2,2,1,-2,0,2,0
-4,-1,0,0,-1,-1,5,1,0
7,-19,-1,-9,1,0,-7,-2,0
23,30,2,0,-4,3,9,3,0
9,12,3,5,-3,0,-7,0,0
-13,-1,-8,-7,-2,-10,-8,-5,0
-18,-11,1,-3,0,5,11,-4,0
16,-17,-2,-1,2,-2,-4,2,0
-5,5,-3,-2,-3,0,4,-1,0
7,-10,0,-3,2,2,3,5,0
8,11,7,0,-3,-2,-5,0,0
7,11,-2,0,0,-1,0,-2,0
-13,-11,0,8,1,-2,3,1,0
-1,-3,-8,3,-1,-2,-5,-5,0
-3,19,-2,-5,-4,1,-2,-4,0
-21,-13,-5,-1,-2,-2,2,-4,0
22,-2,-2,-4,1,0,0,0,0
-18,-12,2,-21,0,-2,-3,-4,0
23,6,-1,15,4,0,1,1,0
-4,2,1,-5,-1,0,-4,-1,0
13,0,1,2,-3,-4,7,2,0
3,-1,5,2,3,-1,4,3,0
5,18,-1,-9,5,2,-6,2,0
-12,-2,-8,-5,-1,-2,-4,-5,0
-16,-20,-5,-3,-1,7,11,-4,0
-3,10,-6,4,-12,-3,-9,-2,0
2,-1,12,-2,-5,-5,-6,0,0
8,3,1,7,4,-1,-4,5,0
7,11,0,-5,-3,-2,-1,1,0
11,0,2,7,-3,4,6,3,0
-2,-6,1,3,-6,-2,-1,3,0
-5,21,-1,-3,12,0,-10,-5,0
28,-9,-5,-8,1,-4,-3,-3,0
-51,-24,-5,15,-5,0,3,-6,0
5,17,-3,5,-6,-4,0,-1,0
2,-25,-2,1,-9,-1,0,-2,0
4,-1,2,3,7,1,-3,1,0
44,10,4,-1,4,1,1,7,0
-42,-14,-4,-9,-7,1,-2,-5,0
-2,-29,-2,1,-1,-3,3,0,0
-6,8,7,6,4,0,-5,0,0
-4,6,-6,-9,-7,-3,0,-3,0
3,6,-6,-9,2,2,-6,-5,0
35,10,-5,-2,1,4,-10,1,0
-28,-21,7,4,7,-1,-2,-1,0
5,1,10,4,-3,2,-3,5,0
6,-1,-4,-2,-1,-4,2,-1,0
-5,-7,-4,-4,-3,2,8,0,0
10,1,-4,-5,-10,-4,-2,-2,0
0,25,4,3,-8,5,1,1,0
-1,-17,0,-12,11,-7,-6,-6,0
-29,-9,-6,-3,-2,0,4,-3,0
-7,11,-7,13,-4,3,0,-4,0
-14,-7,-4,-8,-4,-4,3,-2,0
27,11,5,-2,0,1,5,7,0
14,0,3,-3,1,1,-4,4,0
1,0,-2,-3,-2,0,-3,-1,0
-5,-4,-4,2,3,0,-4,-2,0
23,-5,3,4,-6,1,15,6,0
-10,15,7,3,0,-2,-11,-6,0
-17,3,-11,-4,-7,-4,-13,-5,0
-16,-11,-11,-10,2,-4,-4,-7,0
10,-22,-8,1,3,-1,-9,2,0
-11,-3,2,2,1,0,12,-5,0
-2,-1,11,2,-1,1,10,0,0
3,-2,1,2,0,0,-1,2,0
3,12,0,-1,-3,-2,-3,-3,0
8,4,-1,0,-5,0,-2,5,0
4,-12,2,1,-4,-3,-6,3,0
7,-16,4,-13,12,0,5,-5,0
-34,40,-11,5,-6,1,-12,-8,0
24,14,1,12,0,0,9,1,0
6,3,1,1,10,-6,-2,5,0
-23,-26,-4,-4,-6,-2,-4,-4,0
32,1,5,0,-9,1,7,2,0
-65,2,-2,-7,1,-6,-12,-4,0
-2,7,-3,-5,0,1,-14,-5,0
0,3,2,9,1,-1,2,2,0
-7,-26,-2,-5,-3,-2,-3,-2,0
20,14,1,-1,-3,-1,0,4,0
-9,-9,-1,-2,1,0,11,-2,0
0,16,1,1,-3,-2,-7,0,0
-17,-1,-2,1,1,2,8,0,0
16,-18,5,-2,-7,1,2,2,0
1,16,-5,-2,-1,-1,-3,-3,0
19,12,0,1,-21,-4,-2,-2,0
-42,-6,3,2,31,-1,-2,-2,0
-5,-27,-11,-3,-2,2,-2,-4,0
-18,-12,-4,-3,-3,1,-6,-5,0
-14,-12,9,1,-5,-3,-5,0,0
5,46,-6,-4,-11,1,16,0,0
-6,-34,-5,-23,1,0,-6,-1,0
18,11,2,20,-1,-1,5,3,0
2,-6,-2,1,5,1,1,-3,0
6,-18,3,-15,-2,-2,-7,1,0
-11,5,-1,18,-12,3,3,-4,0
22,1,-1,-7,7,-2,1,1,0
2,16,0,2,13,1,-11,-1,0
23,-16,0,1,-6,3,-1,-1,0
-6,-5,-4,-4,-2,-7,-2,0,0
5,-30,0,-4,-5,0,2,-2,0
-12,23,-1,0,-1,0,9,-3,0
3,9,-5,-3,-12,-3,-9,-4,0
19,10,3,1,6,-7,-1,1,0
7,-17,-1,-3,6,0,-5,1,0
0,-3,-3,-4,2,2,3,3,0
-24,-10,7,8,-4,2,-1,-1,0
28,15,-1,-3,-3,-1,-1,1,0
-14,27,-4,-18,-3,-2,-4,-8,0
7,-8,-8,10,0,-2,-4,0,0
-12,-7,10,2,-14,0,6,2,0
4,11,2,5,12,10,10,0,0
-13,-6,-9,-10,5,-9,5,-2,0
-1,7,1,-5,-18,1,-4,-2,0
15,-14,-3,-10,8,-8,-17,-4,0
-7,-7,3,18,6,4,12,3,0
1,13,-2,-1,-7,-1,-1,-1,0
0,-8,-4,-2,2,-1,5,0,0
0,2,-3,3,-4,-2,0,-1,0
20,11,6,-6,-5,-1,-4,2,0
-44,-5,-4,0,-2,-3,-11,-8,0
-2,11,2,3,3,0,7,2,0
25,18,1,-4,-2,1,-2,4,0
-13,-15,-9,-5,0,-3,-5,-4,0
-1,5,5,11,-1,4,-4,1,0
-13,-24,-3,-5,0,-3,2,-10,0
-8,-18,-10,-4,3,1,2,-3,0
28,19,1,12,-3,-4,-1,2,0
-7,-1,1,1,-3,0,4,-2,0
23,-2,-2,-3,3,-2,0,5,0
-16,10,9,5,2,1,1,0,0
-4,-13,-4,-6,4,-4,-8,-3,0
4,-13,-2,-3,-9,5,4,2,0
-7,-6,-3,2,8,1,1,1,0
9,-5,-1,-6,1,-1,1,1,0
-15,9,0,13,-5,-2,-3,0,0
7,5,6,2,2,-2,-1,1,0
2,-1,-1,-3,2,8,18,1,0
-4,-5,-5,-1,-9,-6,-20,-2,0
-19,-12,2,-11,6,0,-2,-3,0
6,7,-3,2,-1,2,3,5,0
9,6,3,5,-3,-6,-5,-1,0
21,32,0,-2,2,0,-2,0,0
-30,-17,0,4,-5,-1,11,-4,0
38,4,-2,4,2,1,3,2,0
-58,-4,-4,-10,-4,0,-4,-3,0
-1,-24,-7,3,-1,0,2,-3,0
-3,13,-2,-14,-2,-4,-8,-3,0
7,-3,5,1,3,1,0,1,0
18,1,-3,1,0,1,-4,2,0
3,-7,-2,5,1,-4,0,0,0
-7,1,11,-2,0,0,1,3,0
1,2,-6,0,-2,-1,-4,-1,0
3,-4,7,1,-4,-2,0,0,0
-4,-4,-5,8,7,3,6,2,0
11,15,-3,-6,-1,2,-7,1,0
-23,-8,-3,-2,-1,-3,2,-2,0
-3,-22,-5,-8,-20,1,2,-2,0
31,34,6,17,17,2,4,-1,0
-6,-17,1,4,-7,-5,-2,0,0
-72,-22,-6,-12,-5,1,0,-7,0
17,22,-3,-2,-3,-2,-18,-1,0
-23,-21,-2,-11,-1,2,9,-3,0
18,7,-1,-2,2,-8,-8,3,0
44,16,2,2,0,-2,-1,2,0
-43,-13,-1,-2,1,-2,2,-5,0
-3,6,2,1,-6,0,-2,0,0
-10,-18,-8,-5,2,0,1,-4,0
20,2,6,1,-3,1,3,1,0
8,5,5,6,5,0,-7,1,0
1,-2,-5,-9,-6,1,3,2,0
-10,-6,1,-1,-4,1,4,-1,0
9,-7,-4,-14,3,-2,0,0,0
24,14,1,16,-1,0,-3,1,0
-48,-27,-2,-1,-16,-3,-3,-2,0
23,28,-2,-5,26,7,-2,-3,0
-12,26,-1,14,-1,-6,-6,-3,0
12,-26,0,-1,1,-1,-1,-2,0
8,-17,0,-5,-4,-5,10,3,0
-2,-1,-1,3,-15,1,13,0,0
-6,-8,-2,-8,4,0,-2,3,0
-17,-2,-9,-8,1,-6,-7,-5,0
1,-8,-1,5,-2,-2,-3,-1,0
15,5,-4,-6,-7,1,-3,-2,0
10,0,11,2,8,-3,-4,1,0
-21,-9,-4,-1,2,2,13,0,0
12,8,4,0,-2,2,-1,1,0
4,4,1,2,10,-3,-4,-3,0
-39,-4,-10,-5,-13,-3,2,-6,0
5,0,3,-2,-3,1,-4,0,0
16,6,-4,-4,10,-3,-3,-1,0
-8,1,-3,-26,-10,1,-1,2,0
14,-26,0,25,-6,-3,-1,2,0
11,13,3,-3,12,-2,-3,-2,0
-18,12,3,7,3,9,4,-5,0
-2,-23,-2,-2,-6,-3,-3,1,0
24,0,0,-12,-3,4,4,0,0
13,28,-9,-7,-7,-8,-11,-4,0
17,-4,-1,-5,0,-4,-14,-2,0
-35,9,3,10,1,1,0,1,0
0,-6,0,-1,1,1,0,2,0
-8,-13,6,6,2,-1,1,-1,0
0,-5,-1,-4,0,-3,-1,1,0
13,3,-5,2,-2,1,-1,1,0
8,19,-1,3,1,-1,-3,-1,0
-36,-51,-4,-7,0,-3,0,-5,0
-37,1,-7,-3,-10,-3,-1,-2,0
-1,-9,-1,-1,0,-3,0,-1,0
4,10,-4,-20,13,-1,-1,-2,0
22,17,7,17,-6,1,3,5,0
5,-8,3,5,-3,1,6,0,0
-6,-1,-1,5,1,8,4,-1,0
19,2,1,-3,-2,-15,-10,1,0
9,14,-10,-10,-1,3,3,2,0
-48,-3,1,0,-11,-5,-10,-11,0
17,4,-1,0,6,0,0,0,0
-3,0,1,0,4,8,10,0,0
33,9,5,1,1,-1,1,4,0
2,-3,-6,-4,-1,-7,1,-4,0
5,-10,-3,1,0,6,-12,-2,0
-13,-19,6,-1,-10,-7,-8,-7,0
6,3,-3,2,3,3,9,4,0
4,22,-2,-23,0,1,-4,2,0
-12,-9,-6,10,-6,-6,0,-5,0
8,-8,-4,3,0,1,-1,0,0
-5,-6,4,-20,-3,-1,1,1,0
13,14,1,14,7,1,-3,0,0
22,21,0,-5,-2,-2,-2,3,0
-12,23,-1,1,-3,5,2,2,0
-15,-18,-1,-5,-4,-3,-4,-5,0
-8,-11,-3,-2,3,2,-1,2,0
-5,-9,0,0,-5,-4,-6,-1,0
4,7,-2,2,0,2,5,0,0
-1,9,1,-2,4,-1,-3,0,0
10,-13,1,3,11,0,0,0,0
-2,9,1,-9,-3,3,1,1,0
-13,-23,-3,4,-1,0,-4,-5,0
0,12,-11,-1,-9,-3,-3,-5,0
19,-1,12,8,1,6,8,3,0
-25,-15,-1,0,2,-6,-10,-5,0
4,-3,-1,-4,-4,-1,2,1,0
0,-6,-5,-5,0,-1,2,2,0
0,4,2,16,5,0,1,-1,0
13,23,5,-3,-4,1,6,-1,0
2,-8,0,1,-1,-3,-2,-1,0
-12,13,-2,2,-10,-3,-4,0,7
4,5,-2,-11,-2,-1,-4,0,7
-24,-22,-4,2,0,-1,13,-2,7
-18,-28,-4,2,-3,-1,-16,-6,7
17,7,6,0,5,2,4,4,7
14,22,-5,-5,-5,-5,-12,-2,7
-76,-13,-6,-3,-6,-8,10,-16,7
8,11,-1,-4,3,6,13,4,7
4,-12,10,19,6,2,0,1,7
16,2,1,1,-3,-4,-6,2,7
29,9,1,2,0,-1,-1,8,7
-10,1,-6,-10,1,1,0,-1,7
-5,-7,1,2,-5,-1,-5,-1,7
-6,-5,3,2,1,2,1,0,7
24,-12,0,-23,4,1,-1,1,7
-25,8,3,17,-1,-1,0,-1,7
1,1,-10,-8,-3,-1,-5,-4,7
2,12,-2,-6,-6,-4,3,-5,7
18,3,-1,-4,-8,0,-5,1,7
-3,-34,-2,-1,1,0,-2,0,7
-3,-2,3,7,12,1,0,1,7
20,14,1,-3,2,2,0,1,7
-19,1,-1,4,-1,-1,-3,-4,7
30,23,0,-1,-4,-2,0,4,7
-34,-20,-1,-6,-8,-3,-1,-4,7
-7,-14,-1,4,-1,0,1,2,7
15,2,-2,8,3,1,-2,3,7
-5,-6,1,3,-4,-2,-1,-2,7
18,-15,4,-3,2,0,2,-4,7
12,42,-1,-16,1,0,-2,-2,7
-10,-13,-7,18,-17,-7,-4,-6,7
-3,3,-1,-8,10,-2,-3,0,7
-1,0,-2,-3,0,0,3,3,7
-25,-30,-1,3,-1,0,1,-2,7
11,-6,2,-5,-4,2,-2,-1,7
-3,-8,-6,-6,-3,0,-4,-3,7
6,12,-3,5,1,-2,-2,0,7
-13,-11,-2,0,-7,-3,-3,-3,7
-5,12,5,-3,4,1,0,2,7
12,-3,4,3,-4,-1,1,0,7
5,4,-2,-13,2,1,-1,-2,7
-17,-26,-5,10,-1,-1,1,1,7
-13,-32,-6,-1,3,-1,-4,-5,7
15,54,0,-2,0,0,-3,-5,7
13,17,2,-8,-5,-1,0,1,7
-12,-16,-8,-2,0,0,3,0,7
29,24,15,19,0,3,-4,3,7
-41,-25,-8,-3,2,-2,0,-2,7
-1,4,0,0,-3,-1,-2,-2,7
1,-7,0,0,3,1,-1,-3,7
4,-8,-2,-4,1,2,1,5,7
2,-10,-2,-3,-4,0,0,0,7
1,20,-4,4,4,0,-1,-4,7
-1,25,5,1,-3,-3,-2,1,7
5,8,-2,5,1,-2,-1,1,7
-13,-16,4,1,2,3,1,-2,7
-2,-19,-6,2,-1,-1,0,-4,7
-6,-26,-3,-8,-4,-1,0,-3,7
-1,23,-2,-8,1,-1,-1,-3,7
11,1,0,0,-13,-3,1,3,7
7,21,-1,1,11,-1,-3,4,7
1,6,8,3,1,2,0,-5,7
-12,-1,-5,-3,4,3,5,1,7
16,1,0,-8,-7,-1,-4,1,7
1,-23,-3,4,-3,-2,1,0,7
1,6,-7,-20,-2,-4,-6,0,7
-13,-9,2,18,2,0,-2,-7,7
1,10,1,0,3,1,4,2,7
-8,-15,1,-13,-3,-7,2,2,7
43,52,4,23,-3,-1,-3,-1,7
-15,-15,-12,-16,-7,-4,-3,-1,7
-19,13,0,-5,4,0,-2,-3,7
-13,-16,3,8,3,4,2,3,7
6,-26,-6,-5,-1,-1,1,2,7
10,1,1,-5,-3,-1,-1,-1,7
-5,-17,-6,3,-7,-5,-2,-5,7
-13,5,-3,-5,3,0,-2,-3,7
-17,-27,3,2,9,-1,3,2,7
2,14,6,4,-1,1,4,1,7
26,14,-3,0,3,-1,-3,5,7
0,-46,2,-1,-10,2,-5,-3,7
9,49,-10,-17,-8,-2,-10,-22,7
-17,-12,-3,15,4,-3,-2,-2,7
0,12,5,-4,2,8,3,-2,7
-6,8,4,4,1,4,7,3,7
-3,-28,2,4,0,-18,-1,8,7
15,2,0,-8,-3,-5,-2,0,7
35,-61,0,6,-1,-2,4,7,7
-7,73,-1,-3,-5,3,-5,2,7
-69,-1,-14,-2,-5,4,-5,-14,7
26,27,3,-5,4,-3,-1,3,7
-22,-13,-4,5,2,0,0,-3,7
28,-35,10,1,4,7,7,1,7
27,-33,19,10,-5,6,16,30,7
-7,97,-7,-12,0,-9,-26,-19,7
-36,-25,-14,-13,-1,-5,-7,-16,7
1,4,-5,0,-5,-8,-2,-2,7
-17,-22,-5,0,3,1,5,2,7
6,-52,3,6,0,11,6,8,7
29,34,16,0,-1,-4,1,2,7
-15,12,-7,0,-2,-6,0,-1,7
-17,-12,1,5,4,6,-3,2,7
-8,-19,0,-6,4,10,9,9,7
-11,-32,-10,-18,-6,-15,11,4,7
32,-5,13,47,-3,4,-22,-12,7
-26,71,-17,-20,-12,-13,-22,-31,7
4,10,-9,-10,5,17,9,13,7
-11,34,3,1,7,-2,16,10,7
12,-62,10,0,3,6,24,35,7
35,-16,4,-3,-11,-7,-23,7,7
-26,-53,-6,-2,-8,-11,-22,-31,7
-3,3,-11,-5,-4,1,24,18,7
20,87,2,-7,4,7,2,26,7
6,8,-1,7,5,5,-15,-49,7
23,13,2,-12,-9,-6,2,-6,7
6,-70,16,18,-8,8,-5,6,7
-29,95,-20,-23,11,-20,-1,-8,7
-14,-46,-12,0,20,3,9,1,7
14,-33,4,8,5,10,7,15,7
33,15,5,2,-3,-19,-2,5,7
-33,-60,2,6,-12,4,3,-11,7
31,-3,11,2,-1,-3,12,37,7
-14,-26,13,17,15,9,45,68,7
8,104,0,-12,-14,4,-95,-48,7
-113,-54,-43,-34,-16,-23,-26,-116,7
15,1,2,10,5,5,17,104,7
19,-47,18,10,1,13,-32,-34,7
67,44,-6,-3,-11,-20,-22,-47,7
-3,10,-5,-13,-23,4,-14,-24,7
56,-24,-13,-1,-31,-50,-4,4,7
-11,122,25,24,13,29,6,69,7
-72,-67,-33,-24,57,44,49,-53,7
127,91,35,17,18,-15,41,75,7
-113,-111,-28,-14,-35,16,-12,-65,7
1,-16,-8,-7,-2,-35,-1,18,7
0,-31,24,19,0,-3,3,19,7
15,60,6,-12,-11,5,-15,33,7
-28,-37,-23,3,76,14,33,64,7
20,61,-17,-25,-53,-37,-42,-116,7
-13,-79,2,14,7,17,26,18,7
50,8,10,-2,-75,3,-30,23,7
28,-15,25,11,57,-12,14,63,7
-79,-39,-27,-16,2,15,5,-74,7
38,55,11,5,-23,-29,-6,91,7
94,-128,64,43,6,45,18,33,7
-95,59,-73,-45,-53,-6,-16,44,7
-13,-128,-8,-3,6,-4,-4,98,7
-74,119,-7,-10,4,0,-38,-80,7
53,-41,-7,-4,28,-20,-8,77,7
-49,34,-13,-3,-18,-11,-9,-73,7
90,108,35,18,-8,-3,-8,36,7
-45,33,-27,-5,14,12,19,29,7
-56,26,-19,-8,13,-20,3,-41,7
72,31,50,15,16,31,24,-25,7
-3,-31,-22,-8,-22,-8,24,-20,7
57,-12,13,12,-8,13,13,48,7
-45,10,20,-14,16,-8,-47,-115,7
-74,-96,-25,12,-17,-31,18,-74,7
13,57,6,-13,17,8,-12,-38,7
43,4,-9,-10,3,-26,-39,64,7
2,-124,-49,-12,25,53,28,78,7
41,-40,38,12,-20,27,29,-35,7
-92,-54,-7,-12,-7,8,43,-69,7
32,73,30,19,6,8,17,60,7
-25,-71,-46,-12,-23,-83,43,127,7
79,116,53,16,0,-34,-114,-52,7
16,-47,-43,-22,1,38,99,47,7
-62,-42,25,6,-18,-39,-25,-64,7
-67,-19,-14,-1,-9,18,17,11,7
102,115,36,9,22,67,11,98,7
-77,-28,-8,12,21,-61,-101,-103,7
-60,-59,-73,-29,-22,-3,-1,95,7
14,20,55,17,2,-1,8,7,7
-27,62,-29,-39,-28,-16,-70,-89,7
-26,-24,46,21,2,-8,12,51,7
3,-26,49,15,16,59,-51,53,7
-85,-25,-44,-5,5,39,-60,-54,7
-16,-34,3,5,-5,-95,65,10,7
51,69,52,16,-10,-26,-93,123,7
-36,35,-4,-13,-13,-53,-35,-102,7
3,-20,-26,-7,8,50,47,-112,7
46,-49,-8,-9,-5,48,78,70,7
45,42,-11,8,17,15,102,127,7
77,19,-5,7,7,7,54,44,7
54,52,17,-9,-16,-16,-20,-82,7
11,5,15,30,5,73,-105,62,7
6,-29,-9,2,35,-39,109,-81,7
-32,-56,-30,-20,-15,-11,-55,-109,7
7,23,16,10,9,1,-6,19,7
-18,25,-15,-10,-11,-23,-11,46,7
57,-10,-49,-25,-10,31,-1,98,7
36,70,90,57,18,43,26,-42,7
5,84,1,-3,-3,-83,-36,-20,7
16,1,39,6,0,-3,28,17,7
11,-97,-23,0,2,14,-73,35,7
-54,-79,-27,-14,-1,13,71,-17,7
3,21,-67,-20,-7,3,-34,110,7
-8,-69,51,9,9,10,127,-31,7
3,36,18,-7,-30,6,4,-31,7
49,-32,-7,-13,-11,-46,-87,-56,7
-17,25,8,7,-3,25,-2,-33,7
-3,-12,-34,-7,25,-13,-74,-117,7
39,25,12,5,1,20,-12,-3,7
-9,-19,-12,-16,-13,-33,33,-41,7
11,-22,13,17,4,-6,31,92,7
-23,51,-22,0,-13,-24,-64,-43,7
-63,-52,19,16,10,48,-46,-60,7
14,-3,-42,-22,-24,-50,95,127,7
-8,37,8,-8,1,-16,-1,-25,7
-24,2,21,3,4,-1,-41,124,7
52,-39,3,2,7,24,-35,71,7
-9,-64,-33,-12,-8,19,-15,20,7
30,-12,-5,-7,-2,-14,-6,-29,7
3,-53,-3,-3,0,22,98,39,7
13,127,-13,-6,-8,-32,-93,-128,7
12,-44,26,23,19,24,-21,112,7
-3,-15,30,29,32,18,4,-83,7
-51,-2,-12,-17,-16,7,44,-15,7
-23,-28,-22,-13,-17,-2,62,-66,7
27,10,0,-15,-20,-27,-25,-56,7
-16,40,-8,-1,19,13,-27,74,7
6,-20,-6,8,16,-1,-28,-49,7
-4,-28,0,-10,-16,-37,9,22,7
23,46,-2,15,18,53,14,14,7
-27,-37,-21,-17,-29,-4,61,65,7
15,-9,-13,5,5,4,-49,-59,7
-1,32,66,10,2,-8,58,118,7
19,-58,-18,-1,1,-9,-77,-128,7
42,14,4,0,2,1,45,57,7
-10,-6,10,2,1,-9,-78,39,7
-28,70,-55,-29,-27,-30,-34,67,7
-21,-26,42,27,15,-3,121,-37,7
-11,-20,24,2,-11,-20,-44,44,7
11,6,-36,-17,-8,5,-3,-53,7
11,-4,-13,2,7,-1,-49,66,7
-3,56,9,-4,6,9,-39,64,7
-51,13,-7,6,8,36,92,-89,7
26,-63,-29,-3,-14,-27,-39,63,7
-35,-5,31,13,10,-3,25,-31,7
-11,-11,-10,-8,-4,29,15,-13,7
0,13,-5,-10,-15,-63,-73,-70,7
15,81,10,-5,-16,19,66,120,7
4,-74,-6,-1,27,7,37,-65,7
9,60,-33,-12,-6,-4,-23,-3,7
18,16,29,15,7,25,-45,82,7
-5,-5,25,4,-4,-16,49,-81,7
3,-35,-26,-13,-24,-31,-53,-8,7
-6,1,16,15,15,39,122,108,7
-5,-2,-24,-15,-9,-37,-106,-23,7
6,-9,-8,0,16,42,11,-9,7
8,45,7,-2,0,28,-56,-31,7
-6,-7,-13,-16,-8,-60,0,33,7
-7,-47,4,22,-2,13,18,-58,7
1,6,5,-2,-3,-11,-34,75,7
8,0,10,13,10,30,49,-96,7
-12,-24,-25,-11,-18,-15,-85,-106,7
-2,10,-7,-12,7,-14,14,66,7
3,-6,-6,1,4,27,28,-47,7
-4,-33,30,4,-7,-36,-34,17,7
-6,29,-6,6,-4,-1,-14,20,7
0,-68,25,9,5,52,-6,13,7
0,38,-14,-13,-6,-69,-46,16,7
1,13,-16,-6,-2,-1,36,-5,7
-3,-5,26,2,-9,20,-20,36,7
3,29,-15,-3,1,-8,13,55,7
-4,-28,16,4,4,-3,-4,-34,7
1,-26,-18,-18,-12,14,21,-31,7
-2,4,-3,-6,-27,-36,-41,4,7
4,38,5,16,24,22,19,49,7
0,-5,-2,2,7,28,-17,-52,7
-2,7,-31,-10,-9,-19,10,33,7
1,31,17,19,14,20,53,22,7
-4,-105,24,-9,-17,-22,-25,-6,7
4,26,13,-6,6,18,10,-13,7
-2,83,14,21,8,-14,-4,65,7
-3,-33,-19,-14,1,47,26,-15,7
0,-13,-4,4,-8,-22,112,15,7
0,-17,-38,-14,1,-18,-78,-57,7
0,-17,-9,-14,-6,19,-32,-58,7
-1,49,48,10,1,-28,-30,57,7
-6,24,13,4,15,34,14,-82,7
3,-69,-16,-6,-16,-10,-12,87,7
2,14,-18,-4,-7,-34,0,50,7
1,8,11,8,21,37,0,-47,7
-2,-30,-15,-30,-24,18,-38,-33,7
1,43,12,24,25,-9,29,-1,7
-2,-32,4,10,15,29,25,17,7
0,-19,-12,-9,-24,-16,-30,37,7
0,80,-1,7,18,-13,36,8,7
0,-34,-19,-14,-15,22,37,23,7
0,-7,20,6,3,8,-10,-34,7
3,-7,-18,4,10,-2,-21,-56,7
-1,38,-9,-11,3,14,40,18,7
0,-25,20,9,-14,-19,-41,-103,7
-2,-51,-39,0,3,-11,-55,-42,7
1,-6,63,21,19,68,41,77,7
1,-23,-16,-1,-7,-55,-39,24,7
-2,51,-11,-8,-3,12,39,66,7
5,-16,18,-4,-4,3,-14,1,7
-4,14,-29,-12,-4,-24,-15,-30,7
0,-20,9,7,2,18,-5,-4,7
1,4,20,1,-2,11,72,-11,7
-3,17,-3,-5,12,-9,-21,47,7
1,37,-9,0,15,14,27,-58,7
2,-9,-17,-6,-11,-1,-22,-1,7
-5,-28,-4,-2,2,-2,-11,10,7
0,24,15,2,-10,0,10,-3,7
-2,-14,-25,-6,8,-9,5,-27,7
-5,-8,22,6,-3,19,3,7,7
0,19,4,7,-8,-47,14,-5,7
4,-10,6,6,17,1,20,6,7
-5,-2,-26,-13,-9,-45,-27,103,7
2,16,8,-6,-5,24,-12,-63,7
3,9,-20,0,2,17,-35,36,7
-2,-41,11,3,-2,3,19,4,7
-3,-35,-1,-3,-11,-21,-2,4,7
0,64,21,10,15,17,4,-4,7
2,-45,-10,-12,-9,-3,16,-20,7
-3,30,4,-1,-10,-4,-5,-5,7
3,-20,-9,-2,0,-15,-18,-25,7
-1,42,-35,-14,-11,-26,-18,-23,7
-1,-10,31,5,1,14,8,65,7
0,-40,-19,-1,-32,12,9,8,7
-3,3,-3,-8,31,2,28,-70,7
0,-17,-5,-4,-3,11,-16,23,7
-1,29,-4,-13,6,38,7,-73,7
1,13,-3,9,-5,-45,10,103,7
1,26,19,3,-23,-11,-4,-60,7
0,-50,0,5,0,-21,-17,7,7
-3,-33,-11,-5,11,73,91,22,7
-7,10,-2,-10,-1,10,7,63,7
5,-4,-17,-1,-3,11,-21,-36,7
0,18,7,-1,0,-14,36,18,7
-2,17,14,11,-5,-40,-9,-89,7
4,61,-10,-9,4,-3,-37,-48,7
-5,-65,0,10,6,19,21,49,7
1,4,-9,-5,-4,-8,-6,-54,7
-1,4,-21,-15,-14,-31,-66,52,7
-5,9,10,4,8,14,67,-62,7
-4,1,5,4,-4,11,-43,9,7
2,-33,0,10,5,20,-17,-49,7
3,60,8,0,-10,-38,32,69,7
0,-43,-20,-16,-17,13,4,-48,7
-3,-25,-7,-2,20,-4,-38,19,7
-1,-21,11,-4,0,20,69,51,7
2,36,7,24,9,-17,-30,85,7
-6,11,8,5,4,28,53,53,7
0,-5,14,0,-11,-10,0,-13,7
0,-22,-28,-10,-1,-10,-19,10,7
-2,47,16,-6,-4,-2,-39,-34,7
-4,-26,26,12,10,-22,-4,-29,7
1,-6,-11,1,-4,-7,-11,-61,7
1,-18,-13,-6,-5,-17,7,-4,7
-1,24,-2,-4,0,39,-34,-71,7
2,-11,6,-1,-10,-76,-46,-18,7
-1,1,-7,-7,-5,10,1,-32,7
-1,8,5,1,-6,13,21,-48,7
0,-27,-31,-8,4,-21,-7,78,7
3,43,13,8,15,33,18,-56,7
-2,-17,6,-6,-16,-14,-37,18,7
-1,27,5,5,0,-3,-6,65,7
1,-43,-18,-1,11,-5,31,-110,7
5,-26,-6,-4,3,9,-19,41,7
-2,27,-4,4,-3,15,-42,-40,7
-1,9,11,1,4,-9,-9,27,7
-2,-14,12,-7,-11,-18,11,96,7
-4,31,-11,10,1,1,-12,-97,7
3,25,-16,-2,1,18,19,18,7
1,-40,13,3,-9,-19,-15,-24,7
-5,7,8,-4,-3,-5,-24,-60,7
1,-24,-18,-7,-2,14,11,61,7
2,36,2,0,1,-6,57,120,7
2,-12,0,-1,7,1,-66,-123,7
0,-23,4,14,-1,2,19,20,7
0,4,-1,-7,-4,2,-67,-29,7
0,17,-3,2,-7,-23,28,-97,7
1,14,-6,-7,7,-26,56,127,7
2,-60,-6,-3,-2,8,-45,-107,7
0,16,7,3,5,4,-9,5,7
-2,13,-18,-10,-7,-10,12,91,7
-1,-56,11,9,3,14,-48,-66,7
1,28,-19,-14,-12,13,55,22,7
0,-32,3,5,-1,10,16,39,7
-2,-21,32,13,12,-24,23,33,7
-2,33,-7,-4,-10,20,-22,32,7
1,-54,-13,-3,1,4,-14,0,7
3,6,-6,-9,3,12,-14,21,7
-1,-30,0,1,6,-15,11,-27,7
-4,32,0,-3,-12,10,27,-51,7
0,-13,-1,3,5,-9,-30,7,7
-1,24,0,-5,-2,-5,10,41,7
0,3,-5,6,9,39,15,-20,7
-2,-23,-11,-13,-13,-32,-18,31,7
2,-12,-8,-4,-3,5,-10,5,7
-7,40,15,-17,2,27,-20,-38,7
1,10,-2,19,-4,-3,18,2,7
5,11,-17,-8,6,-2,-2,-14,7
-3,-16,26,9,4,-3,1,-12,7
2,-10,-5,-2,-1,-10,-1,3,7
4,53,-13,-13,-8,-9,-21,68,7
-1,-30,23,18,2,16,11,-7,7
2,7,11,7,-2,20,49,32,7
3,-15,2,3,8,-18,5,-42,7
-1,-18,-3,-14,-13,11,-21,-25,7
1,16,-13,-4,0,7,3,38,7
4,38,9,10,11,-24,31,64,7
0,-35,2,10,7,26,12,-75,7
3,-28,-10,-17,-22,-55,-39,-58,7
3,10,5,5,15,10,17,22,7
0,10,-7,-9,7,-28,-53,-44,7
0,-24,-20,-2,-10,11,10,21,7
-2,9,14,1,11,28,34,36,7
-3,38,-11,-3,-12,1,-2,-54,7
3,16,6,8,0,33,-8,83,7
-1,-81,-3,12,9,-49,-12,57,7
2,32,27,-5,-7,12,0,-67,7
-1,-14,-1,-7,1,-1,0,34,7
-3,32,-32,2,-4,-2,-9,-2,7
-1,34,45,11,0,8,4,25,7
-3,-62,-12,-1,3,24,6,20,7
-1,7,-2,-1,2,-11,-12,-50,7
-1,-21,-9,-11,-5,4,2,52,7
-1,33,-7,1,-2,-40,10,4,7
-2,12,5,-2,-10,0,-56,-2,7
-2,3,5,1,20,-4,-28,-40,7
-4,-8,3,1,-8,3,3,98,7
0,2,-15,-12,-6,30,46,59,7
-2,12,6,1,6,2,29,7,7
-1,-22,-8,2,-9,-23,-31,42,7
1,17,13,3,-3,-13,0,3,7
-2,23,-1,-11,-11,-8,-8,-74,7
2,-37,-38,-6,3,-2,7,-16,7
0,-2,31,11,-1,15,16,19,7
1,-34,-3,5,3,-4,17,-34,7
-1,55,14,14,7,3,-9,-59,7
-4,-8,-20,-11,-11,-13,-43,118,7
-4,39,-12,4,4,-6,53,-18,7
-1,-63,-19,-25,-20,-48,-54,-77,7
2,21,11,11,0,46,46,62,7
-1,-23,1,5,-5,-28,-38,-122,7
-2,-35,-7,-4,7,10,-11,58,7
-7,46,3,6,16,0,37,-30,7
5,-25,-16,-21,-35,-29,-17,-72,7
-1,24,16,8,26,18,28,63,7
4,21,-27,-11,-17,1,-32,-75,7
1,-17,16,11,10,15,-5,-31,7
-5,-47,-18,-3,8,-10,-15,-17,7
5,-2,-6,-5,-22,-15,27,-23,7
-2,73,25,3,-2,-19,25,60,7
1,-35,-11,-6,-6,1,-54,-1,7
3,-17,-3,-3,5,9,-22,-5,7
1,3,14,8,6,5,39,87,7
-2,2,-14,-7,-5,-1,-17,4,7
-2,13,0,0,-4,1,54,-40,7
3,-6,16,3,4,-3,-5,52,7
-3,25,-1,-2,6,4,-45,-46,7
0,-40,-7,1,2,55,58,57,7
-5,6,10,-1,-6,-35,-14,10,7
-3,-7,-24,-6,9,-2,-3,-15,7
1,66,19,0,-14,-15,-12,-85,7
-4,-12,5,-4,-3,0,-25,-55,7
2,-16,0,8,12,17,2,42,7
0,-15,-11,-7,-2,-12,-26,-35,7
-1,11,12,8,8,-3,15,17,7
-5,-12,-4,1,-5,-6,23,30,7
2,35,9,-10,-8,10,8,-73,7
-3,-56,-7,10,5,-8,-12,52,7
-4,10,-18,-8,-1,25,-21,-67,7
1,-62,-9,-2,0,29,74,-13,7
-4,52,13,-4,-10,-69,-15,45,7
1,6,16,5,6,5,-36,26,7
-1,-6,0,-3,-7,36,13,-94,7
-3,-21,-6,5,9,-31,-14,57,7
0,26,-10,-7,2,23,-3,-28,7
0,20,3,1,-5,-19,27,21,7
0,-33,3,6,2,12,-4,50,7
1,45,12,4,2,13,-13,-37,7
1,-47,-6,-3,14,-5,55,106,7
-6,53,-9,-7,1,6,-34,-57,7
-2,-67,1,8,-2,3,23,3,7
-2,-56,-1,7,-7,-22,-71,-31,7
-4,-6,-1,4,3,36,43,-19,7
0,31,-8,-10,-1,-11,34,-3,7
-3,-12,17,2,0,-6,-18,3,7
3,28,-7,-5,-14,-56,46,-21,7
0,3,-6,0,-6,40,-46,60,7
2,1,-8,-5,8,8,7,-61,7
0,-26,-5,-12,-10,-4,-7,74,7
1,-49,13,7,3,22,-17,-58,7
-3,-4,-14,-4,-3,-49,-7,32,7
-2,33,3,0,-8,12,14,69,7
-1,-17,-15,-9,-3,-21,0,-32,7
2,14,1,-10,-3,8,-19,-22,7
0,66,0,7,11,42,94,-16,7
-4,-46,39,6,-14,-24,-70,-79,7
1,22,-4,4,8,-18,-5,32,7
-2,-48,-15,-8,-5,-2,-8,29,7
1,17,1,-2,-9,8,2,-22,7
0,-18,-23,-8,0,15,-17,-36,7
3,-39,-11,-4,0,-23,-15,19,7
-3,40,8,-1,1,11,-45,-45,7
2,-12,-8,-1,3,-4,-33,12,7
-1,-7,-15,-5,-7,-38,34,8,7
-3,27,9,2,-1,3,-21,6,7
3,17,-2,0,-1,-7,30,37,7
0,-28,6,6,-6,36,-9,-35,7
-3,41,-2,1,12,7,20,40,7
-2,-7,-7,-8,2,-13,-13,85,7
0,-29,-6,-5,-6,-17,-25,-36,7
-2,-21,3,-15,0,0,0,-50,7
2,-4,4,14,-7,12,20,28,7
-2,55,6,15,5,-7,3,13,7
0,10,0,2,3,4,20,-74,7
-3,-37,13,5,-2,-17,-69,26,7
2,-4,-12,-14,-1,-2,19,53,7
3,37,-1,-3,5,30,66,-7,7
1,-2,-1,-5,-2,0,-49,-2,7
-4,-7,2,5,-4,-13,-25,-37,7
-2,-17,0,1,0,30,25,20,7
1,47,1,-6,0,-31,41,-25,7
-4,-66,-4,7,1,-6,53,97,7
5,20,-7,-7,-1,6,-32,-37,7
0,-15,14,5,-6,-32,-31,22,7
-2,-4,-4,3,5,31,-8,-36,7
0,6,-4,-5,-3,32,-2,-93,7
-1,-6,-11,-7,-13,-63,-29,69,7
1,26,-1,6,11,22,23,-6,7
2,-27,32,5,0,-5,-19,-2,7
-1,20,-1,2,1,-6,-7,47,7
0,13,0,6,0,19,39,5,7
-3,10,0,0,1,2,37,-67,7
-4,-5,-34,-12,-5,-12,-96,-50,7
0,-27,37,11,3,-6,-18,-10,7
0,17,-1,-3,0,4,36,71,7
-1,-13,-6,-3,-2,-6,-12,-31,7
-7,-10,4,5,6,32,52,32,7
-2,19,-9,-6,-8,-19,-26,64,7
-4,5,-6,-3,3,15,-18,-75,7
0,9,13,5,-2,-23,-16,120,7
-3,10,-11,-7,-8,-3,27,-100,7
0,25,-2,-4,-1,14,-18,42,7
1,-7,1,6,6,29,28,-56,7
1,-21,0,2,0,-18,-35,78,7
2,-9,1,-2,3,0,2,-43,7
-1,-5,-22,-10,-6,-15,13,35,7
-2,21,-9,-5,-7,-7,-29,-73,7
0,-7,27,10,6,-5,-2,-5,7
-1,-60,-16,-1,2,8,-14,-22,7
1,20,13,2,0,-20,-1,-32,7
0,18,-2,1,1,14,14,86,7
-2,16,-17,-19,-11,-5,8,-108,7
2,-29,-3,-2,-5,-17,0,82,7
-3,2,-7,1,2,10,-14,-46,7
0,5,17,9,8,30,14,50,7
2,-18,-11,3,1,-24,14,17,7
-1,9,2,-9,-10,-6,0,76,7
-1,9,-5,-5,-1,-7,14,-52,7
0,-11,-4,-1,3,1,-17,-91,7
-2,-7,-20,-7,0,22,5,77,7
0,51,23,4,3,10,0,-70,7
-2,-31,9,13,-1,-6,10,17,7
-1,-14,2,0,-7,-14,10,15,7
4,13,-2,-4,-1,4,0,-22,7
-1,-2,-21,-1,-1,2,-7,64,7
-2,73,17,-3,2,11,26,-47,7
0,-44,-10,-7,-6,-25,-3,-26,7
-3,15,1,-5,1,12,37,-19,7
-3,11,6,-1,-3,-21,-16,13,7
2,16,10,15,10,37,-11,0,7
0,-13,-4,3,0,0,45,75,7
-1,22,-6,-11,-12,-11,-62,2,7
-1,-14,7,4,-1,-31,-2,-19,7
0,37,-19,-4,2,-6,-15,-18,7
-1,-38,7,-2,-2,-5,9,98,7
0,-28,-8,-3,0,26,-24,-31,7
-1,39,15,1,-1,-10,68,57,7
-4,-75,-28,-5,-7,-16,-20,-52,7
-1,12,-1,-5,0,-1,-15,-26,7
-2,8,8,-12,-2,8,39,19,7
0,-25,-12,14,-4,4,-22,-25,7
1,39,-2,-8,5,-3,12,71,7
-2,-4,27,17,3,-13,7,-34,7
3,-27,-8,-5,-1,37,-18,-107,7
-1,3,-12,-13,-6,-10,-35,38,7
1,-10,12,-2,-3,-19,15,-6,7
4,14,-16,-20,0,-3,21,4,7
-5,-51,-3,25,2,13,-15,25,7
1,-30,7,17,6,15,16,-23,7
-5,5,-11,-8,-10,-65,0,19,7
2,7,-2,-1,-1,-12,-18,-80,7
-1,24,0,-9,-4,-11,-1,23,7
1,9,0,-2,0,32,13,24,7
1,-52,-35,-8,-7,2,21,65,7
-5,31,36,7,-3,-10,-21,-41,7
4,-4,-8,1,-2,-9,-8,-61,7
-1,7,-5,-4,1,-3,-17,17,7
2,20,12,3,2,7,-5,-69,7
0,8,-19,-3,0,-4,10,-34,7
-4,-2,-6,-5,-9,16,-58,-53,7
2,-22,3,3,5,8,28,-35,7
0,-30,20,0,-4,-19,-8,41,7
0,1,-13,-6,1,6,-21,46,7
2,32,4,5,-4,-27,30,33,7
-3,9,-9,-12,0,2,-3,-30,7
-2,-1,-7,-2,1,54,-9,45,7
-2,-9,10,6,-4,-23,-22,-32,7
2,17,7,-4,5,-21,3,-24,7
-2,33,2,4,4,10,31,112,7
-2,-44,-18,-29,-3,20,-17,38,7
-1,-14,-9,25,-5,-1,1,-73,7
-8,-8,9,7,2,10,66,119,7
-1,-2,-7,-9,4,-21,-84,-128,7
3,31,1,1,0,22,2,-19,7
-4,-9,-5,-8,2,3,16,5,7
-2,-18,-1,-5,-8,-43,-25,-46,7
3,29,4,-2,-5,9,28,127,7
-3,-20,25,16,8,-12,-16,-77,7
0,20,0,-4,-5,-9,-20,6,7
4,-13,3,15,4,13,12,-36,7
-1,-31,-10,-15,-1,9,24,76,7
0,20,-6,1,1,4,30,50,7
5,31,14,12,-7,8,-32,-42,7
-11,-10,-6,-7,9,-17,28,84,7
2,3,-3,12,4,-15,2,-118,7
-2,-4,-8,1,-4,-5,14,70,7
2,-29,-6,-5,6,13,-12,45,7
6,26,-23,-4,1,50,36,48,7
-5,-4,38,5,-10,-41,-40,-41,7
3,-19,5,2,0,3,1,31,7
-4,8,-19,-11,-5,-24,-30,-109,7
6,37,-2,-8,-4,26,12,13,7
-2,-76,6,6,2,-4,4,-32,7
0,9,-10,-1,-4,4,20,30,7
-2,3,6,-6,2,18,-8,63,7
-3,-23,-19,-8,-7,5,-1,-56,7
-4,12,-3,-1,-9,-51,-51,90,7
-5,14,11,-2,-3,-4,24,-86,7
2,1,-18,-2,-4,-2,20,-10,7
-2,12,28,6,2,-2,-16,56,7
5,-26,-17,-9,0,35,10,-59,7
-5,16,3,3,-3,-8,-16,9,7
0,1,17,6,7,6,31,68,7
0,23,3,0,9,16,-82,-21,7
-8,-36,-18,-17,0,21,26,-59,7
5,10,25,11,-6,-51,-17,-20,7
1,-28,-21,-22,-5,15,37,54,7
4,3,20,20,0,-8,57,74,7
-2,-20,-10,-2,-8,4,-45,-64,7
-4,25,-21,-8,4,41,-60,-27,7
-6,-34,30,9,4,-10,0,-19,7
-2,-5,-8,-8,1,-3,-19,-54,7
-5,49,-6,-1,0,-12,0,97,7
-3,-6,9,-7,-6,0,3,31,7
2,-35,-21,-10,-1,29,11,-23,7
-4,-20,-14,0,-2,-18,-42,-50,7
-3,39,20,19,8,-7,74,40,7
-3,-5,-10,-2,-4,-15,-9,80,7
-4,24,-2,1,0,4,-45,-4,7
-7,-11,10,1,-2,0,11,33,7
-1,12,-6,2,-3,14,-2,41,7
-3,-17,-6,-2,6,5,15,8,7
-6,21,6,-3,-1,20,-23,-27,7
1,-3,-15,-8,-7,-64,-8,-58,7
0,-4,22,5,1,35,-34,-61,7
-4,-38,12,11,6,-9,38,54,7
1,14,-2,-3,-1,9,30,39,7
-6,26,-7,-14,-4,27,-8,-10,7
-3,1,-9,10,-2,-56,5,33,7
-5,-34,4,-8,-8,6,-48,-25,7
-3,3,-8,7,5,7,31,11,7
0,-12,14,2,4,9,8,-55,7
4,-10,-3,-13,-4,14,-1,-59,7
-2,30,-4,1,-2,1,19,-32,7
1,-1,-3,-1,0,-32,6,127,7
-3,-24,-13,-3,-9,1,-5,-44,7
2,15,3,-1,1,24,38,4,7
0,40,-1,-17,-1,4,-13,16,7
-2,-11,-3,12,-3,-2,-13,-33,7
2,33,3,1,-2,-7,19,103,7
-2,-41,-2,-2,-5,17,-45,-106,7
-1,-1,-9,-5,4,-31,33,42,7
0,27,8,-4,-7,-4,5,-31,7
1,-15,-3,8,5,-9,16,27,7
1,52,25,-1,-4,-19,-29,-16,7
1,-15,-20,-1,4,30,-3,6,7
-3,19,-17,-5,-2,-13,1,-40,7
3,-14,23,10,-3,-2,38,52,7
1,-5,-3,2,5,4,29,101,7
0,-3,-10,0,-6,-1,-59,-128,7
3,0,-3,-7,-6,-13,-1,26,7
4,6,-1,-5,-3,-2,-11,38,7
1,-17,-12,-12,8,58,25,-43,7
-1,31,6,16,-7,-17,16,26,7
6,0,15,10,-1,-30,-22,97,7
-4,-31,-2,1,1,19,36,-97,7
3,-9,-6,-4,-1,0,9,58,7
-2,-15,-15,-11,3,-3,13,10,7
1,8,10,4,2,15,36,-10,7
-1,14,-18,-2,-2,-14,-34,37,7
1,10,23,4,-5,2,-15,-43,7
3,-21,12,5,3,-10,11,24,7
-2,-33,-9,-16,-1,-9,0,-25,7
0,12,-12,2,-4,-7,-27,-26,7
1,42,-4,4,1,-13,0,-2,7
-1,3,9,8,2,12,-10,-79,7
-3,-6,1,-3,-4,3,1,12,7
3,-23,-5,-2,3,28,14,-32,7
-5,-8,-11,-7,-5,-31,-18,62,7
-2,3,1,3,-2,-16,-29,65,7
-4,4,0,-9,2,6,9,-16,7
-4,-9,-6,3,-7,-7,-49,-8,7
2,6,3,3,-3,3,23,27,7
2,-12,-9,-5,8,1,8,-31,7
-1,-20,-6,-1,-9,6,-22,-81,7
2,-8,-2,-5,3,-2,2,42,7
-2,34,17,9,4,-7,32,-58,7
-4,-30,-6,-2,-10,20,-70,-56,7
4,11,11,2,10,-6,6,-5,7
-2,9,-6,2,-12,-17,18,83,7
-5,10,-28,-3,1,-6,-37,-85,7
-5,-3,43,4,0,17,15,-29,7
-1,-39,-23,13,1,-6,1,20,7
-3,-13,-8,-17,-4,-4,-12,-4,7
-3,-9,0,-1,-4,0,-8,72,7
-1,54,6,7,-1,-26,22,65,7
0,22,10,-2,1,8,19,-7,7
-2,-25,-5,-1,2,25,14,-100,7
-1,-20,-10,-7,-6,-22,41,92,7
-4,-7,-9,-8,0,-2,-36,-87,7
-4,18,10,5,1,-4,-33,1,7
-1,18,0,-5,1,50,-24,-27,7
1,-20,6,1,1,-36,-40,-29,7
-1,-12,-13,-13,-2,2,70,53,7
0,20,-15,11,-5,-31,23,50,7
1,8,35,8,4,-7,-5,-60,7
-11,-6,6,-3,-3,19,19,-54,7
-1,-12,-5,-6,1,-4,-34,-8,7
3,-22,-16,0,3,16,18,-9,7
-2,28,12,0,2,-14,-16,73,7
-2,1,-12,-5,0,19,3,-54,7
-2,2,-6,-3,-4,-22,30,70,7
-3,-5,17,2,4,18,-31,-65,7
-3,-27,-9,-14,-7,-8,10,38,7
3,10,2,16,2,2,-24,-33,7
2,7,-13,1,0,-17,24,11,7
2,1,1,1,3,12,29,40,7
5,45,7,-1,10,48,-8,-71,7
-5,-43,-12,-17,-16,-84,-31,32,7
-6,6,-2,-12,0,27,-1,-8,7
1,12,3,7,-13,-44,-12,10,7
1,4,21,9,3,-14,19,105,7
4,11,-7,0,-3,25,22,-19,7
-9,15,1,-1,2,7,-13,-27,7
-7,-60,-21,-16,1,6,-35,-33,7
-4,21,-3,4,-1,-13,1,33,7
-5,-37,26,12,8,13,21,-52,7
1,-7,-32,-18,-22,-43,-40,-3,7
-2,32,10,-4,-1,10,13,-18,7
0,-34,3,5,-1,-6,-1,-9,7
2,29,3,-7,2,9,-32,56,7
2,-8,-3,-1,10,31,32,-66,7
-1,4,9,27,3,22,46,17,7
0,0,-2,3,-5,-52,-41,-14,7
4,13,0,-8,-8,13,13,100,7
4,-12,2,8,7,2,30,-26,7
7,-10,-12,-20,-2,-7,-39,-6,7
1,-10,-9,-11,-4,5,23,-2,7
9,-12,-19,11,-4,18,47,9,7
2,23,22,6,11,32,37,89,7
2,35,6,-6,-6,-9,-31,-68,7
-3,-63,9,8,2,-15,-3,-89,7
-1,14,-16,-11,1,12,-4,36,7
-2,-2,16,5,-9,-6,-23,-17,7
-3,5,5,-8,0,-8,19,114,7
-3,-17,-25,-7,-3,2,4,-74,7
4,18,10,4,2,-7,-50,-62,7
3,4,-4,5,2,11,13,-12,7
-3,17,-4,10,2,-7,3,64,7
1,29,26,9,7,20,-21,-25,7
-3,-63,-21,-17,-8,-27,-30,-15,7
-1,17,-1,2,-3,24,-6,78,7
-1,-11,6,-6,4,-12,24,-22,7
5,23,-21,-6,-6,-6,-40,-9,7
-1,8,9,-3,8,32,4,-32,7
1,-12,5,18,-4,-18,-15,-4,7
-6,-20,-9,-6,-2,26,38,11,7
1,-13,-14,-10,-6,-20,6,123,7
-3,55,20,8,-2,-1,-6,-6,7
-7,-40,-27,-4,1,17,-24,5,7
0,13,22,12,13,10,67,12,7
2,1,-12,-2,-8,-38,-19,-73,7
5,-23,3,-9,-5,-9,15,57,7
-7,14,-6,1,-1,-3,1,9,7
-3,-7,-10,-10,-6,-6,-50,-58,7
-12,-29,19,13,14,16,21,60,7
3,-8,2,6,2,2,6,-45,7
-1,8,14,10,8,5,18,18,7
0,17,-11,-15,-4,4,-9,-58,7
10,-23,-18,-9,-2,35,-2,16,7
-2,6,6,6,3,-24,37,51,7
-2,10,9,-2,-2,-17,-6,-65,7
-8,-13,-6,-10,-5,7,-15,-6,7
2,39,5,12,-3,-1,4,13,7
-9,-17,-4,4,11,-1,-28,-69,7
-1,1,-5,-14,-4,-9,-16,87,7
-1,13,5,5,-5,-2,-19,-7,7
-19,1,-1,1,2,-8,41,-64,7
-4,-17,-3,-3,-3,14,-22,-34,7
-3,-12,-6,-7,1,16,21,-19,7
-2,27,13,7,6,-12,-7,42,7
-3,-10,1,-2,-4,-8,3,32,7
-2,-12,3,1,-1,-11,9,25,7
0,7,5,-12,-2,-7,-10,-42,7
3,-2,-21,12,-1,3,-11,25,7
7,37,5,2,2,3,-10,-10,7
-1,1,6,-1,3,15,71,118,7
-4,-15,-10,-3,-5,13,-15,-47,7
-2,-29,-5,-10,-3,-1,-17,-18,7
2,24,-10,-19,-3,5,-9,-39,7
-5,-15,7,18,-7,-56,-29,-15,7
0,12,2,9,-1,3,-6,-41,7
0,5,1,-7,-1,2,-23,-43,7
-1,-33,-15,-11,-8,-5,19,79,7
2,14,-4,-3,1,10,-12,16,7
-3,-8,-1,7,-3,-4,5,60,7
-4,-4,-5,-3,-4,-27,-19,-90,7
1,-4,10,5,6,7,5,12,7
2,29,-3,-14,-6,33,9,15,7
-4,-15,0,9,-4,-64,15,41,7
-2,-1,5,-2,-1,11,13,-64,7
5,-18,-17,2,-1,20,11,30,7
-7,-11,3,1,-7,-31,-42,1,7
-3,32,3,-1,8,23,37,4,7
-1,-55,-9,-2,-3,-12,-12,25,7
3,-2,12,8,2,4,21,-50,7
-1,-6,-11,-2,2,4,10,47,7
3,28,-2,-2,-4,13,-26,-30,7
-3,-3,14,5,1,-39,25,106,7
-6,-14,-15,-9,1,9,-47,-91,7
1,5,-2,-6,-4,16,12,9,7
-1,-3,8,-1,-11,-38,-53,-40,7
5,18,3,5,4,23,47,73,7
5,0,-2,-4,-6,-16,6,-16,7
11,-10,-6,-3,0,25,-18,-93,7
3,-11,-7,-4,1,-13,-8,-12,7
2,6,-1,1,3,12,1,1,7
6,21,9,-1,-5,-13,13,55,7
0,-16,-13,14,6,10,3,28,7
-6,-11,3,0,4,20,23,-64,7
9,-22,4,-4,-14,9,-45,-24,7
3,1,-4,7,8,-28,-7,28,7
3,29,-7,-19,1,-7,-5,8,7
5,-2,1,1,-4,11,31,81,7
2,18,11,6,3,0,0,-1,7
-1,18,14,-6,-7,-1,-10,30,7
4,-6,-10,8,1,-5,3,-6,7
-8,2,6,-1,4,3,0,-29,7
-4,-24,-16,-9,-6,8,-9,-44,7
8,6,2,-6,-4,1,-3,32,7
-2,-5,-2,-3,-1,-29,11,-13,7
-1,-15,-4,0,-5,-8,-22,-15,7
2,15,7,1,4,27,10,-14,7
-4,3,-4,1,-4,-3,-20,71,7
2,-20,-5,-2,2,4,-7,17,7
-7,10,1,6,-1,6,27,-44,7
-6,-12,-9,-7,-12,-42,-39,-77,7
-2,0,-8,0,2,12,20,16,7
-3,-16,9,-2,1,9,13,-51,7
4,5,-7,-4,0,-8,-21,18,7
6,24,-1,-2,4,21,22,30,7
-5,44,4,1,-1,-3,-3,2,7
-1,-45,11,0,2,-4,-16,-39,7
-2,15,-11,3,2,6,6,27,7
-1,-6,-6,3,-3,-5,18,-4,7
-1,-23,21,1,-1,-16,-27,-89,7
-3,21,-6,4,1,9,13,30,7
4,-4,-4,-8,-6,1,-6,73,7
-6,9,-13,-9,-2,-3,4,62,7
-14,4,-2,1,2,16,-18,-49,7
0,-24,-10,0,-9,-7,23,-12,7
-10,-1,4,-3,-1,-43,-16,-73,7
-2,9,-3,2,2,-6,-36,56,7
-1,-34,-6,-1,5,16,44,34,7
-15,17,1,5,2,20,21,-9,7
-1,-21,-11,-6,-2,10,-46,-2,7
-4,-10,8,5,-1,0,-33,-90,7
-1,-6,-5,-5,-2,-15,29,67,7
-4,21,2,-10,-10,-22,-39,-44,7
-5,-23,-6,-6,7,11,25,40,7
-5,-2,-1,6,2,21,3,-16,7
-6,2,-3,-1,-3,-8,-10,-29,7
-5,4,0,5,-4,5,-17,16,7
0,19,18,5,4,6,0,3,7
1,9,-11,-9,3,-3,1,-4,7
0,-22,3,6,1,0,20,10,7
5,-6,-10,-7,1,-5,7,25,7
-1,-3,16,5,-1,14,-36,-36,7
-7,-32,1,1,2,4,50,52,7
8,-12,-13,-4,0,-4,-28,26,7
-7,35,11,-19,-2,-3,-4,40,7
-4,-2,-6,17,-1,6,-9,-101,7
0,1,-1,2,1,12,31,13,7
2,5,4,2,3,-10,-19,-25,7
1,-8,-5,-4,-2,-2,-8,89,7
-5,4,-5,-8,-14,-9,-6,-25,7
0,2,2,2,8,1,13,56,7
-10,18,5,-5,-1,14,3,-22,7
0,8,-6,4,2,5,-7,-1,7
0,-45,-6,-4,0,-29,24,32,7
1,11,12,1,-4,-7,-10,0,7
6,3,-1,-5,3,9,-9,-82,7
-8,12,-4,15,0,16,-29,-31,7
8,-24,6,2,8,12,6,47,7
2,-10,2,-8,-12,-39,-9,-23,7
7,29,10,2,-2,-11,12,-29,7
7,-31,-19,-7,2,35,-5,-37,7
-1,18,6,3,-6,-66,21,44,7
8,-4,-5,4,-3,5,-23,-14,7
0,-9,-10,-12,-6,-22,-1,19,7
-1,25,6,2,-2,5,-5,-17,7
8,-16,-9,-5,0,5,-15,21,7
4,2,5,9,10,6,76,36,7
1,-29,-11,-10,-16,-16,-79,-91,7
11,8,-14,-8,4,-5,5,8,7
-6,7,24,16,4,19,26,54,7
9,10,-5,-6,-10,-18,-13,-7,7
-2,29,12,9,5,30,3,66,7
7,-36,2,6,2,-13,17,-37,7
10,15,-14,-14,-7,-18,-12,-89,7
-3,12,-7,-4,-4,3,-27,-30,7
7,-31,7,10,7,9,34,55,7
-2,17,11,2,2,-1,15,-12,7
0,-1,-11,-8,-3,11,-2,-41,7
2,43,5,-7,-1,23,-8,-39,7
1,-18,-21,3,-1,-14,3,79,7
-3,39,44,8,7,39,16,55,7
6,-36,-20,-19,-16,-45,-18,-6,7
1,4,2,12,7,5,3,1,7
-2,-6,-9,-7,-7,-11,1,-10,7
-11,-14,-4,0,3,-2,1,-37,7
-5,27,0,-3,4,23,10,13,7
-2,30,-7,-5,-3,-44,-13,29,7
-7,-72,32,26,8,13,-6,-9,7
6,-16,-15,-6,-7,-1,4,74,7
-10,10,-1,-3,1,24,-26,-73,7
-7,-16,-13,-3,-3,-27,-14,-22,7
-2,33,-4,-4,5,29,40,29,7
1,-33,-6,-2,-1,-26,-8,-10,7
2,2,8,5,-2,5,7,15,7
-5,-21,2,0,2,20,-10,44,7
3,34,-9,-5,3,2,-7,-75,7
-2,18,0,-2,-6,-19,8,1,7
-9,-53,-8,1,11,13,15,-34,7
-5,-14,-9,-7,-2,43,-2,-43,7
2,4,-2,-4,-1,-28,-1,-63,7
-4,34,-1,-13,-1,-25,-31,-61,7
-8,26,12,14,1,0,-15,109,7
-15,-38,6,-2,9,13,10,58,7
4,21,-1,4,-6,15,48,25,7
-5,-1,6,1,1,11,-25,-13,7
-10,71,-23,-9,-1,-7,-18,-4,7
-13,-74,26,11,3,20,4,49,7
-5,12,-5,-8,-4,-9,4,58,7
-7,-16,-3,0,1,-7,12,-29,7
7,-1,-7,-8,-10,-5,-12,32,7
2,68,-32,-4,2,-3,38,-24,7
-11,-58,41,5,-5,2,-37,-46,7
2,36,13,8,-1,-9,12,-18,7
-6,-17,2,2,3,11,-23,-8,7
3,24,-20,-14,-3,8,52,86,7
-11,12,9,14,6,-17,-50,-71,7
-1,-17,-12,-1,-1,1,9,15,7
-4,-4,3,3,-4,-14,4,-17,7
6,3,17,-2,-11,-62,-26,78,7
-2,7,-26,-18,-9,23,39,-27,7
-3,-1,10,5,2,6,-18,-39,7
5,-15,-4,0,2,16,24,54,7
-4,51,3,-4,5,-5,-14,-95,7
6,-63,-26,-13,-3,-12,15,11,7
-3,54,57,37,8,46,-52,-52,7
-1,-31,-10,-14,-10,-84,-17,1,7
-4,-14,12,13,5,18,38,70,7
0,8,-17,-13,-6,-22,-30,-50,7
5,-28,-20,-10,2,13,21,12,7
3,70,-14,-4,-1,23,7,-1,7
-9,-71,41,12,-2,-11,-24,-72,7
-2,32,5,-2,0,-17,-29,66,7
8,-23,-14,-5,-7,-16,27,17,7
2,-1,5,0,-1,20,-17,-8,7
14,10,-19,-6,-1,-16,-20,-72,7
-9,-5,-2,3,10,66,22,106,7
0,-4,-2,-6,-7,-22,77,-48,7
-4,-19,-14,-11,-8,-12,-27,-49,7
9,-5,-2,-6,-1,12,-16,-2,7
14,18,8,20,2,-15,10,22,7
-3,28,-32,-11,-3,-18,20,111,7
8,-23,31,10,6,-1,25,-11,7
-3,-63,-15,1,-1,26,-3,-58,7
1,27,10,-7,-8,-19,-36,12,7
10,-6,-10,4,4,17,20,84,7
9,0,-14,-9,3,12,18,7,7
2,-6,11,20,-6,-12,-38,-47,7
-7,-8,-17,-3,8,6,36,-54,7
0,3,-2,-11,-9,-12,-29,74,7
-1,17,13,5,2,6,1,-12,7
5,-7,-6,-6,4,4,-11,8,7
12,43,-6,-7,-2,3,-9,-34,0
-5,-59,1,2,-4,5,8,24,0
-1,2,3,5,3,-24,26,3,0
-3,7,-9,-9,-15,-26,-8,10,0
8,16,3,-14,-6,-8,8,18,0
-2,42,-6,2,0,-3,-114,-73,0
-10,-35,3,14,16,73,117,-16,0
1,-6,-2,-11,-13,-32,-74,-75,0
-10,-23,5,5,2,1,12,29,0
4,12,-11,-6,-2,-1,-1,10,0
2,-10,12,-3,-1,16,11,6,0
-2,-14,1,2,3,2,3,-4,0
-5,-23,-2,5,-4,8,14,-3,0
-5,-18,-12,-20,-3,-15,-1,-11,0
0,11,-5,20,-3,-14,-41,20,0
1,18,-1,-13,6,11,30,19,0
5,-7,2,14,0,4,-19,0,0
-9,-11,7,8,5,-3,20,-3,0
-4,11,2,-14,-14,0,-21,-23,0
-4,11,-3,-6,-54,7,5,24,0
1,-4,-9,-6,51,-9,3,-7,0
-4,-4,4,9,35,42,-4,-25,0
-7,-5,-6,0,3,-17,3,13,0
-15,1,10,17,8,-35,5,18,0
-14,9,-2,-1,-39,-6,2,13,0
-17,-19,-6,-14,-27,-14,11,-20,0
-14,53,-11,-12,4,11,-32,-3,0
-1,-29,19,10,16,19,-1,20,0
-1,5,18,0,-4,-7,20,-21,0
39,-14,-3,3,-1,-3,-9,-29,0
3,-8,-10,-7,-13,4,-1,12,0
2,22,-15,-9,2,-6,-14,-18,0
-4,-5,6,8,8,5,1,9,0
-10,-19,-3,-2,-8,-7,4,4,0
9,6,2,-18,-7,-6,-12,-6,0
10,7,-5,7,2,5,15,13,0
-8,2,-1,1,3,0,-8,-1,0
-14,7,5,2,-1,4,3,5,0
0,-14,-4,1,10,-11,4,0,0
-30,9,9,0,-9,16,9,13,0
0,5,-4,-17,-38,0,-4,-1,0
-9,-2,-5,2,38,-24,-12,-10,0
19,-11,9,7,27,55,13,11,0
12,2,-10,14,7,-22,5,14,0
10,-2,-6,-2,-20,-17,-22,-10,0
-9,-5,3,-6,-27,-2,5,2,0
-13,-5,-1,-5,-17,-8,-4,-1,0
5,-3,-8,-5,20,11,0,-1,0
-30,-5,-5,-4,26,3,-1,1,0
-24,3,-1,9,8,-6,4,3,0
7,5,5,6,-12,1,0,3,0
1,15,13,-2,-45,7,-3,-2,0
-8,-20,-7,0,35,-9,-15,-6,0
8,-8,-4,-20,18,-3,14,3,0
-20,1,-5,14,45,-8,-5,-7,0
-11,0,-9,2,-20,5,1,-2,0
-3,21,7,-3,-69,3,3,4,0
-10,-9,15,-2,-60,1,-2,10,0
-77,-31,-9,-5,45,-6,-4,-9,0
-46,19,-16,-4,86,-1,-9,-13,0
-41,-2,-3,7,2,-2,0,3,0
-21,6,0,-1,-25,-2,-2,3,0
-67,11,9,0,-117,-8,12,2,0
-95,5,5,-5,-27,16,3,-3,0
-52,-18,-9,-1,119,-8,-23,-3,0
-10,-6,1,14,-6,16,15,-1,0
75,-10,-4,-2,-20,-4,-3,-3,0
118,3,2,-22,-117,-7,11,7,0
127,4,-15,2,69,-17,-14,-4,0
116,3,8,16,-61,1,0,-2,0
83,-7,1,-1,-69,7,-8,-4,0
38,-13,5,-2,4,-12,-13,1,0
54,-5,6,-5,-72,9,24,4,0
33,57,-1,-3,59,0,16,7,0
7,-10,-25,-24,-33,-3,-18,-15,0
-25,-16,-9,15,31,-18,-18,-5,0
-6,-33,3,7,8,6,-1,4,0
34,-11,3,0,10,-10,-4,0,0
24,63,22,12,7,11,18,12,0
-32,-26,-11,-15,34,-2,2,-6,0
-12,-6,-7,-6,-30,2,-3,-5,0
-32,-13,-3,2,-11,2,0,-2,0
18,4,9,-1,25,-5,-3,6,0
16,-5,-10,-1,17,4,-3,-2,0
-22,13,-1,3,-57,-1,8,-1,0
-10,-4,4,-26,15,3,-6,-3,0
-11,-13,-4,22,49,-7,-9,-5,0
7,12,2,3,-1,3,5,0,0
-5,5,0,-1,-27,3,8,-1,0
-17,3,-3,-3,-4,-6,-13,-3,0
18,-5,-2,-13,12,-5,-2,3,0
3,-6,4,8,-14,9,8,-1,0
-29,-5,-7,-9,14,-2,-4,-7,0
9,1,2,7,-4,-3,-7,1,0
4,-19,16,7,15,3,6,8,0
-37,-13,-9,-4,-13,1,4,-9,0
30,37,2,-3,63,-1,-6,-5,0
-59,-8,-16,-8,1,-4,-7,-11,0
-5,0,0,4,-5,0,3,1,0
64,-5,18,7,-16,2,3,17,0
39,57,19,5,-36,5,-3,9,0
-13,-20,-19,-9,29,-4,-8,-5,0
21,4,-7,6,-7,-16,-5,-4,0
-3,-23,-6,-3,-45,-1,-3,-11,0
20,19,9,-1,77,10,1,12,0
-14,-4,0,12,28,14,16,-7,0
-14,-6,-11,-29,-33,-15,-19,-6,0
11,14,5,15,28,2,2,6,0
5,-9,-1,3,-64,2,5,2,0
49,17,11,-4,-42,-5,1,10,0
-10,-5,-7,3,49,2,2,-6,0
-50,22,7,-6,22,1,-4,-10,0
-53,-21,-4,-3,-22,-2,2,-3,0
-3,4,-14,-6,0,-6,-8,-5,0
17,-15,-1,0,-30,0,1,0,0
16,-1,0,0,4,0,1,2,0
-13,-7,3,13,2,3,6,4,0
40,-3,6,7,6,-3,-2,7,0
-28,16,10,6,-28,5,3,3,0
-53,3,-23,-33,-21,-5,-5,-20,0
-23,-55,-14,-2,42,-2,-12,-12,0
-2,24,-4,-3,27,-12,-3,1,0
92,80,26,33,12,20,17,19,0
-81,-53,-15,-10,-49,-18,0,-4,0
-25,2,-17,-23,-27,-12,-8,-21,0
16,-19,-6,-7,-16,0,-8,-7,0
-12,11,0,2,57,4,0,-1,0
72,13,21,10,-5,8,11,15,0
3,6,7,8,-29,0,8,9,0
3,23,-2,-3,-24,1,5,5,0
-105,-33,-16,-17,5,-9,-26,-18,0
46,12,2,5,18,0,-5,2,0
-12,-41,0,1,-4,-1,0,3,0
1,3,16,8,0,4,0,6,0
-14,-26,-12,-9,-20,-3,0,-9,0
-1,-9,-3,-16,25,6,-3,-4,0
10,32,6,17,9,-2,2,0,0
15,-98,22,13,-10,8,12,13,0
-53,-4,-16,-14,-54,-1,11,-15,0
-29,107,-3,-14,-48,-25,-31,-3,0
16,-32,-10,2,72,-1,11,3,0
8,-5,-5,4,26,1,7,0,0
43,-41,7,5,8,6,1,9,0
25,-14,10,8,-14,7,-1,6,0
-34,50,12,-6,-54,1,-6,8,0
-59,-6,-25,-12,-8,-13,-15,-33,0
48,-31,-11,-8,1,-2,5,-3,0
22,-38,-5,7,23,3,8,3,0
26,-1,6,1,-13,0,3,6,0
30,-3,7,4,5,4,1,8,0
-31,31,2,-4,-1,-3,-3,8,0
0,2,2,4,31,5,0,5,0
21,-16,-1,-2,-3,3,3,-1,0
-35,37,-1,-3,-18,-1,-1,0,0
22,29,1,-15,-45,-11,-5,1,0
27,-16,5,24,66,9,4,12,0
4,-2,-3,4,6,5,1,-8,0
-32,27,5,-23,-17,-19,-14,-8,0
-10,-29,-6,14,-40,1,-2,0,0
11,-11,-5,-8,31,-7,-2,0,0
2,-11,0,4,-1,8,2,0,0
-6,8,-1,2,-3,2,0,2,0
32,-1,10,1,26,4,3,3,0
-21,-66,-2,-3,-30,1,5,0,0
-28,77,-8,-12,-11,-8,-13,-12,0
2,-15,-7,-2,-6,1,-3,-6,0
2,12,6,3,16,-5,3,1,0
7,-2,-4,3,8,7,8,-3,0
-21,11,5,-1,-5,1,0,3,0
66,15,9,12,2,3,1,13,0
-92,-61,-25,-13,-15,-3,-7,-21,0
-11,14,-1,-7,17,-5,0,-6,0
15,-9,-5,-16,43,8,9,0,0
-1,13,-2,19,-16,-5,-9,2,0
15,5,10,7,25,0,0,3,0
0,21,-1,-6,-25,0,0,0,0
6,-14,4,11,-30,-5,-1,-1,0
-16,-10,-2,-6,18,-1,-2,-3,0
21,5,-1,-2,20,2,1,3,0
-5,22,5,4,-3,3,3,0,0
-12,9,-6,-8,-13,-6,-4,0,0
26,-34,-3,-6,-8,0,1,-1,0
-35,21,6,11,3,2,2,3,0
7,15,-11,-3,-1,-3,-5,-9,0
11,5,9,5,-6,-2,-3,2,0
-48,-31,-4,-6,-24,1,0,-5,0
71,18,3,-8,19,-4,-8,8,0
-25,6,-6,-13,-1,3,14,-7,0
-5,-8,0,13,-33,-3,-4,-5,0
10,-7,-10,-3,16,-1,0,-3,0
30,9,14,5,17,9,2,8,0
7,-4,-3,-2,0,-4,-11,-6,0
-7,-36,-13,-5,-60,-10,-3,-5,0
11,19,6,-6,53,-9,18,7,0
-37,-17,-5,7,4,5,-1,-3,0
-3,7,0,-1,-27,-1,-9,1,0
7,-11,-6,-13,0,-5,-1,1,0
-14,10,0,11,4,1,2,-3,0
12,9,2,1,15,-2,8,-1,0
-6,-12,9,25,10,3,4,7,0
34,16,-1,-8,-11,1,-4,0,0
-93,-23,-11,-13,-15,-1,-13,-22,0
2,0,-9,-5,-6,-8,-7,-4,0
-1,-15,-5,-20,-17,-1,-4,-6,0
7,-20,-2,15,17,-2,-1,4,0
21,30,8,13,-4,1,-1,6,0
7,3,-3,-8,-8,1,4,0,0
-49,-25,-9,5,0,-3,-2,-2,0
0,9,12,-4,14,-6,-2,-5,0
11,4,2,5,5,7,-2,6,0
-37,-15,-5,-1,-25,-7,-3,-7,0
22,16,1,-7,6,5,3,6,0
-8,-6,-7,-1,28,-1,-1,-3,0
-8,-6,2,-5,-35,-6,-4,0,0
3,1,1,4,27,1,0,0,0
4,13,1,3,-3,-2,3,-2,0
-5,-4,-4,-9,-6,-2,-3,-3,0
15,3,0,-14,-6,1,0,2,0
-17,0,-9,9,-9,-1,-3,-3,0
3,5,1,-1,7,-5,-1,2,0
0,-11,1,0,3,3,-1,-2,0
3,3,-1,-3,5,2,1,0,0
14,10,2,1,-5,-1,0,1,0
-18,-19,-5,-2,3,-1,-5,-6,0
19,3,4,0,-3,2,3,5,0
-14,12,-7,-1,-6,1,-2,-2,0
-14,-7,3,-9,-2,-4,-5,-4,0
16,-13,-3,7,-2,-3,0,0,0
0,10,3,5,-1,3,4,4,0
11,-13,1,4,1,-3,0,-2,0
-2,-7,1,0,-15,0,1,1,0
-1,-2,0,-11,14,-4,1,0,0
10,5,-8,-5,16,2,-3,-3,0
20,1,0,12,-3,4,-1,3,0
-11,-18,4,5,10,2,0,-1,0
-6,8,7,-1,-51,-4,1,0,0
2,11,-6,-9,21,0,-3,-5,0
16,6,0,-1,7,-3,1,6,0
-7,-5,1,6,-6,-1,0,1,0
13,-5,2,-11,2,-1,0,-2,0
7,-2,-1,13,-12,0,3,8,0
-62,-1,-2,-8,-4,-2,-5,-14,0
19,10,6,0,2,1,0,3,0
14,30,5,4,-4,5,3,1,0
-5,-32,-4,-2,-6,-4,-4,-3,0
1,11,-6,4,14,1,2,4,0
-6,-12,-2,-17,-6,-2,-2,-4,0
0,10,-4,15,9,-3,-1,-2,0
-4,3,7,-1,-27,4,0,0,0
10,-4,2,-4,15,-14,-3,0,0
-22,13,-8,4,8,10,1,-4,0
21,0,4,0,4,1,-1,4,0
-12,-40,-9,2,-8,-1,1,-3,0
3,-8,-2,3,-16,8,-2,0,0
26,10,-2,-8,-1,-14,-4,-2,0
23,65,2,-11,-18,-4,-4,5,0
18,12,10,13,46,5,8,8,0
-89,-56,-8,6,26,5,-3,-17,0
16,-8,-6,-6,-24,-2,-3,-1,0
-22,-19,-1,5,2,1,0,-2,0
-4,2,-1,-10,-22,-5,-3,-1,0
40,18,8,-6,-12,2,1,4,0
3,9,-4,4,6,0,0,1,0
-16,-6,-4,-3,6,-1,-2,-3,0
-11,9,-5,-20,-3,-4,-3,-4,0
16,-13,0,9,-15,0,2,2,0
2,4,-2,-2,11,-1,-1,-2,0
-11,-9,3,8,11,0,-2,-2,0
6,24,-2,0,-7,-2,-4,-2,0
-8,-21,-6,-4,-12,3,1,-2,0
4,8,-5,-16,-27,1,1,1,0
-6,-7,9,10,12,5,1,-2,0
16,-1,-2,3,41,-4,-1,3,0
1,19,-2,16,-25,-1,-1,1,0
-12,-11,2,2,4,-7,-7,-4,0
8,2,0,-10,-13,0,0,-1,0
-10,-4,-6,9,-7,0,-1,-6,0
32,1,8,-8,4,-1,1,4,0
-50,16,-5,0,-10,4,-1,-3,0
12,-13,-5,-5,-13,-7,-7,0,0
-2,4,2,2,13,2,-2,-1,0
2,11,-3,-7,3,-1,-1,0,0
11,-18,5,1,6,-3,0,1,0
-6,-8,-5,4,2,-1,-4,-5,0
-17,-8,-6,-3,-13,-2,-2,-4,0
0,2,0,-3,-1,2,0,1,0
6,2,4,1,-1,-1,-2,0,0
-1,3,-3,0,10,3,1,-1,0
-6,-15,-2,-1,-11,-8,-2,-1,0
-9,2,2,-4,7,0,-3,-1,0
40,12,0,-1,0,0,6,6,0
-31,-29,-5,2,1,-2,0,-1,0
-48,15,-8,15,-27,-4,-6,-11,0
13,-3,9,-2,9,0,-3,0,0
44,0,2,3,23,0,2,5,0
-19,-16,-8,-15,0,2,2,1,0
6,19,-1,-4,-16,-1,0,2,0
-25,4,0,-6,-13,-5,-5,-4,0
-7,-15,-4,3,6,3,-2,-5,0
26,4,9,0,2,1,2,6,0
-1,-14,5,-5,-4,7,-2,-2,0
3,6,-9,3,11,-8,-1,-2,0
-5,-1,2,-1,-9,-2,1,-1,0
4,0,-7,0,8,1,-2,-2,0
9,-2,9,-3,-2,2,0,5,0
15,17,-3,-25,-4,-2,1,2,0
-12,1,0,20,2,-1,-1,-2,0
1,-10,2,-4,-7,-5,-5,-2,0
-9,-18,-10,-4,3,8,5,-3,0
1,-6,10,13,-1,1,3,2,0
-10,10,-1,-4,-4,-3,-1,0,0
26,5,-4,-2,-10,0,-2,1,0
22,-6,9,7,27,-1,-1,6,0
-27,-9,-2,3,-10,0,0,-3,0
11,66,-5,-6,-3,1,-6,-4,0
-21,-21,-1,8,2,-5,0,-4,0
0,-37,-9,-15,-11,-3,0,-2,0
31,-29,-3,0,-10,-1,2,4,0
-21,5,3,0,-38,3,-3,-1,0
-3,16,4,2,62,-2,0,0,0
-7,23,2,5,-9,4,-1,-2,0
-7,-6,-5,-7,4,-4,-3,-5,0
7,-27,-13,-12,-9,-1,1,0,0
-9,5,2,10,-29,-2,0,-2,0
-4,0,13,17,21,-2,-2,0,0
1,6,4,4,-6,1,-2,0,0
14,-9,-1,-2,12,-2,1,1,0
-29,1,-11,-16,-14,4,3,-2,0
-5,-6,-4,-14,-17,-12,-5,-4,0
0,8,-3,-9,16,-3,1,-2,0
13,8,0,4,23,3,0,3,0
-19,-24,-6,-2,1,1,-2,-1,0
13,6,7,1,-14,-2,-6,-1,0
-17,-8,2,1,-9,3,3,-2,0
2,-10,3,2,6,-3,1,2,0
19,-16,-2,6,-3,-1,1,2,0
-8,26,-10,-10,-32,-1,-1,-3,0
5,14,2,4,31,-5,-8,-1,0
-57,-40,-5,12,3,8,4,-9,0
26,24,4,-15,0,-12,0,-1,0
-18,-25,-7,12,-6,-3,4,0,0
21,9,4,13,-19,1,-2,-1,0
-27,-10,3,-9,14,-5,-2,-2,0
-1,11,1,3,3,5,-2,1,0
13,12,-1,-6,1,0,0,0,0
10,-7,-14,-7,6,-1,0,1,0
-1,-1,6,-2,-10,-2,-3,-2,0
0,-5,-2,-2,-5,-2,-1,-4,0
5,14,1,-3,6,-2,-1,0,0
1,5,-1,1,-26,2,0,2,0
12,-6,-5,0,29,-1,1,2,0
-2,7,0,4,-2,3,0,0,0
7,-24,-3,-6,1,2,3,2,0
-12,1,-4,-10,-14,3,-1,-3,0
6,2,0,-2,-7,-14,-3,-1,0
-15,8,2,25,-27,-3,-4,0,0
17,-4,4,1,40,3,5,2,0
-6,10,-3,-2,-5,3,-4,0,0
-17,-27,-3,2,-3,-3,3,-4,0
21,16,2,-9,-7,-1,-2,2,0
11,0,-1,1,-13,-3,-1,-5,0
-36,-15,-6,-28,-5,-3,-3,-5,0
-6,9,-5,-4,-12,0,-4,1,0
11,3,-9,16,12,-1,-2,-1,0
-8,1,13,6,6,0,-4,1,0
14,6,2,-1,11,4,4,2,0
3,-6,-10,-12,-13,-2,-3,-1,0
5,3,10,-1,-6,3,2,0,0
-17,4,3,5,6,-4,-2,1,0
7,-17,-7,8,-4,-7,-2,-3,0
-20,0,-4,-3,-3,5,5,-2,0
-9,-5,-10,-5,0,1,-1,-1,0
7,4,-4,-9,-11,-1,1,1,0
16,4,4,2,21,-1,0,1,0
4,-1,5,8,11,5,-4,3,0
-21,-6,2,-9,20,1,-1,-4,0
-14,10,-2,8,-10,1,7,-1,0
17,18,1,-2,-17,-5,0,1,0
-8,-4,1,5,-6,-1,-3,-4,0
6,2,3,-12,4,0,0,4,0
29,-10,-1,-1,-4,0,-5,0,0
-38,-16,-2,10,13,-4,4,-1,0
16,7,-2,-5,-5,0,-3,-2,0
-5,1,-4,-7,-15,-3,-2,-4,0
-6,-2,-6,1,8,1,-2,0,0
20,14,4,4,10,2,-3,0,0
-12,-18,6,-1,2,-6,0,-1,0
-13,10,2,9,5,-4,4,0,0
15,-8,-4,-6,-3,2,-2,-4,0
13,11,2,1,0,1,-1,1,0
-10,-2,-3,-5,-30,-3,-5,-3,0
10,-1,-3,-5,15,-2,8,0,0
-2,2,-1,-4,16,-4,0,0,0
14,-7,-1,-1,-2,-3,-3,-2,0
13,11,2,2,-2,1,1,0,0
18,20,-4,-7,-7,-1,0,-1,0
-12,-13,2,0,-12,1,-2,1,0
-33,-17,-9,-5,10,-4,0,-3,0
3,2,2,5,-1,0,-2,0,0
14,29,9,14,3,2,-3,0,0
-3,5,-5,-14,-2,-7,-10,0,0
26,2,4,9,-7,7,11,3,0
-40,-18,-4,-2,3,-6,1,-4,0
-18,-29,-6,-5,-2,-2,-1,-4,0
-26,-6,-1,-5,-26,2,0,-2,0
12,17,-2,-6,32,-3,-6,0,0
29,9,2,-5,2,2,-1,2,0
5,-7,3,5,-6,-1,1,3,0
-38,-52,-15,-1,-8,-2,-6,-6,0
-6,10,1,7,-5,4,6,-2,0
-4,2,2,8,9,-9,-1,-1,0
19,9,0,-3,5,3,-4,-1,0
0,8,-3,-1,-7,0,3,2,0
-10,-6,9,3,-10,1,-3,-2,0
28,9,-5,1,4,1,2,2,0
-12,-13,5,1,-2,-2,1,2,0
-1,6,-4,3,12,2,-3,-7,0
-2,-10,-4,-10,-16,-6,0,0,0
24,23,-1,-7,-2,1,-1,1,0
-20,-28,-3,-5,-12,4,-8,-1,0
9,11,1,2,16,-8,7,0,0
-7,21,-3,-1,-18,5,-4,0,0
-28,-29,-1,2,-8,-12,-8,-6,0
5,-6,-6,-1,22,6,0,1,0
9,0,5,1,-3,1,5,2,0
-13,-10,0,-3,0,0,2,1,0
21,20,2,8,-24,0,-1,0,0
2,-2,-2,-13,-3,-4,-6,-7,0
-15,13,0,-15,13,-3,-2,0,0
5,-12,-3,16,-6,-2,-2,0,0
-13,-12,-2,-4,14,4,1,0,0
17,-2,2,7,-15,-2,0,1,0
-4,-3,0,-4,5,-3,4,1,0
-4,0,1,-2,-3,-2,-1,-1,0
-21,3,-7,-3,-2,-1,-3,-4,0
3,28,8,-1,-13,2,5,-1,0
-8,-19,-2,-1,1,-10,-5,-3,0
0,-9,-3,-3,-5,-1,-2,0,0
0,-5,-2,-3,8,2,1,2,0
21,8,-6,0,1,-3,0,1,0
13,15,13,7,-19,6,-1,-2,0
-32,-31,-3,-1,10,-7,-1,-4,0
-14,9,-11,-15,9,2,-3,-7,0
-7,-14,-8,-16,-7,-6,-4,-2,0
18,10,4,27,-14,3,-2,4,0
12,2,0,-22,12,2,1,-1,0
38,8,10,8,24,5,4,9,0
-27,-5,1,8,-14,-1,-3,-4,0
-13,5,-5,-6,7,-2,-2,-4,0
0,-1,-2,1,-15,0,-2,-2,0
-6,-9,1,-2,-3,-3,2,1,0
15,1,-4,-8,13,-3,0,-1,0
10,10,0,-1,-6,4,1,1,0
-4,10,0,9,-4,-4,-4,-1,0
13,7,5,2,-5,0,1,0,0
-9,-13,-3,-3,3,2,1,-1,0
-8,-8,-4,6,13,3,4,0,0
4,-3,-10,-3,3,-3,-2,-1,0
-19,-5,20,4,3,4,0,0,0
-4,13,-7,0,-10,-6,-5,-1,0
-2,4,-5,-11,-1,0,1,-4,0
7,-1,0,-6,-2,1,0,1,0
17,14,-8,-3,-12,0,-1,4,0
-52,-58,3,7,-47,1,10,0,0
21,27,8,-4,66,-6,-9,0,0
-14,3,-7,9,-7,2,1,-4,0
-2,-18,-6,1,1,-1,-1,-2,0
32,32,2,-2,3,0,0,4,0
-13,-16,-3,-6,-23,3,0,2,0
6,2,6,-3,-1,1,0,0,0
2,5,-1,10,2,-1,-3,1,0
0,-3,-5,0,9,-2,-1,-1,0
4,-7,2,6,-8,2,2,-3,0
14,9,3,1,12,-1,-3,1,0
20,13,-2,-6,-10,-4,-4,0,0
-70,-17,-5,-14,-2,6,11,-4,0
-22,-12,-3,7,0,0,-2,-5,0
-6,-11,-2,1,-3,0,2,1,0
-9,-8,-3,-13,-11,6,0,-2,0
37,16,1,6,9,-10,-5,3,0
11,5,8,-4,-2,-2,0,-1,0
0,1,-2,4,-9,1,-2,-3,0
2,-15,8,2,-5,0,2,3,0
5,-20,1,6,-4,-4,8,2,0
35,62,-9,-7,16,5,-2,0,0
-31,-30,-10,-8,-21,-2,-8,-12,0
-15,-3,-4,0,19,-4,-1,-1,0
4,-12,-2,-1,-7,0,-3,-2,0
14,-20,3,-2,-9,-1,3,4,0
16,17,4,-6,2,0,3,4,0
-10,5,-7,-13,-9,-3,-3,-6,0
6,-1,1,12,2,7,-5,-1,0
-12,-12,-3,-1,4,-13,-2,-1,0
10,11,3,0,-3,3,-1,1,0
7,-13,-7,-9,-14,-8,-2,-2,0
-14,12,15,8,13,1,2,2,0
-31,-24,-7,5,4,1,-1,-4,0
2,42,-1,-7,17,3,0,0,0
-18,-38,-8,0,-15,-3,-4,-5,0
17,-1,-7,-1,15,-7,-7,-4,0
-1,-8,0,-4,-23,6,5,1,0
0,-13,5,7,7,-2,1,1,0
5,23,0,-5,4,5,2,0,0
10,9,1,-1,4,2,-6,-1,0
-5,-15,-1,-1,-7,0,-3,0,0
16,10,-3,-5,-25,-3,-3,-3,0
15,8,7,17,38,-2,4,2,0
-18,19,-1,-21,2,-6,-7,-3,0
-38,-38,-13,5,5,1,-4,-10,0
-33,2,4,2,1,-4,-4,-4,0
-4,-15,2,6,-20,5,-1,-3,0
19,11,2,4,13,-2,5,2,0
16,15,1,-5,-1,1,3,6,0
2,-11,-3,-1,-8,-4,1,-1,0
-4,-27,2,2,3,1,0,0,0
-11,5,-9,-11,2,1,-12,-6,0
28,33,1,-5,-9,-6,3,3,0
-34,-21,-3,10,0,0,3,-5,0
-19,23,0,-3,-10,-3,-2,-1,0
9,-39,-3,3,17,4,2,0,0
10,-5,-1,4,-8,2,-6,-2,0
23,2,5,-4,-2,0,0,4,0
-7,22,4,-1,-11,-3,-1,0,0
8,2,-1,4,9,4,1,-1,0
1,-6,-2,-25,9,0,4,3,0
8,-1,-2,7,20,1,3,3,0
-10,-15,-5,8,-11,-2,-2,-4,0
8,12,5,-1,-14,-2,0,1,0
17,12,0,-11,-16,-1,1,3,0
-3,-16,1,6,9,-3,-3,-4,0
-1,2,1,3,9,2,1,1,0
9,10,-2,-8,-18,-1,2,1,0
-43,-21,-3,9,13,-6,-5,-9,0
4,10,-2,-2,-4,6,1,2,0
4,3,3,-2,2,-3,-3,1,0
6,-31,-13,-6,-4,-6,-1,-3,0
7,38,2,-5,-15,-1,-4,-1,0
-29,-16,0,6,3,-1,1,-4,0
-1,7,1,-1,-2,0,2,1,0
1,8,2,1,5,-1,-2,-1,0
-41,-36,-6,-4,-16,-4,-6,-6,0
9,3,-3,-5,-7,8,1,3,0
14,3,-11,-8,22,-7,2,-1,0
0,4,21,9,-5,-1,2,1,0
4,2,-4,21,17,3,1,3,0
4,-2,3,2,-17,-4,0,2,0
15,4,-3,-3,3,4,0,-1,0
-20,-1,-8,1,-8,-1,-1,-3,0
7,-8,3,-8,-4,-4,1,0,0
16,-1,3,-2,3,-2,-2,3,0
-27,-16,-5,-5,-11,-6,-3,-3,0
46,16,1,-1,2,0,0,3,0
-22,27,3,-1,-12,-2,-1,-4,0
-24,-20,-6,4,8,-7,-5,-6,0
-4,0,3,-3,7,5,-1,2,0
-15,1,1,3,-3,1,4,-1,0
18,-23,0,7,-11,9,1,1,0
39,24,1,-7,-2,-17,-6,3,0
-4,-21,-3,1,-13,7,8,-4,0
-9,12,-3,-1,20,3,-1,1,0
16,3,3,5,-7,4,0,1,0
-8,-3,-5,-9,4,-3,-2,-1,0
4,1,2,-1,-28,-5,-6,-3,0
-1,-1,3,8,33,0,-3,-2,0
6,2,0,-5,-4,5,6,1,0
-7,-3,1,2,9,-6,-9,-2,0
-24,-8,-3,0,-11,-4,-5,-5,0
-10,5,-9,-23,-20,-3,-7,-1,0
22,2,-2,16,8,-3,9,2,0
-1,14,1,4,2,4,0,3,0
14,-1,0,-2,5,1,1,2,0
-16,-12,1,3,-19,6,4,-1,0
6,-4,-3,-12,15,-13,-8,-4,0
6,-3,-4,-4,-21,6,5,0,0
0,11,2,5,12,-3,-2,1,0
4,-13,-2,2,19,5,-1,-2,0
22,-1,-2,1,-14,1,0,3,0
-40,20,-2,-13,-4,-6,-3,-7,0
-5,-11,4,5,3,0,0,-3,0
8,6,-1,-2,-28,-5,0,1,0
-10,-6,2,5,19,-2,-6,-1,0
5,-11,-1,-2,-41,2,7,-1,0
4,1,-6,-12,61,0,-2,-1,0
-12,-2,0,3,-15,-3,1,-4,0
6,16,4,5,1,3,0,1,0
3,-27,-5,-1,6,0,5,-1,0
4,5,1,-7,-26,1,-1,2,0
21,-6,-2,7,4,-1,-1,0,0
-14,9,5,-10,2,-3,-1,6,0
1,47,4,4,-2,1,-6,-7,0
-9,-12,-11,0,-3,-2,-1,-1,0
-13,-7,0,7,6,-3,-1,-2,0
-1,-13,-4,-28,-6,5,-1,-2,0
9,-12,0,0,-1,-1,4,5,0
8,28,4,2,7,-5,-1,0,0
10,-14,-2,-1,-5,5,-2,-3,0
-17,-6,3,7,-4,5,1,-2,0
17,-8,2,3,14,-4,1,3,0
-43,-11,-7,-6,-17,-5,-7,-10,0
-17,6,-3,-4,-9,0,-3,1,0
10,10,-1,2,-2,0,-8,-6,0
7,-9,0,-8,13,0,1,0,0
12,7,1,8,5,2,4,5,0
9,1,1,2,-25,-3,-2,2,0
-12,-10,8,-5,26,-5,1,1,0
-5,-1,-9,12,5,3,-2,-2,0
3,-10,10,4,14,1,0,0,0
-1,8,-5,-11,6,2,0,-1,0
4,-2,-5,-2,-15,-12,-4,-1,0
-3,-1,-3,-9,-10,3,-2,-2,0
-10,-1,-4,-2,-12,3,3,0,0
5,-5,2,7,9,-10,-2,0,0
-2,-2,-2,3,-12,2,2,-3,0
1,-5,-2,-6,8,-2,-1,0,0
19,8,1,4,-12,2,1,4,0
-23,1,-1,-6,0,-3,-2,-6,0
1,-11,-8,-2,4,0,-7,-2,0
0,0,1,7,2,-2,5,0,0
7,10,2,-2,-4,0,-1,-1,0
7,0,1,-1,-2,0,3,0,0
-7,-2,1,0,4,-2,0,0,0
-4,-5,1,0,8,3,-3,-2,0
11,-9,-3,0,-11,0,0,2,0
0,8,3,-12,17,4,0,0,0
25,21,1,15,7,-3,1,5,0
-38,-16,-7,-15,-8,-4,0,-7,0
5,10,-3,6,-1,-2,0,-2,0
-14,-16,-10,-8,-14,2,-2,-3,0
0,10,13,2,0,-4,2,0,0
22,5,2,3,1,2,-2,4,0
0,-5,-3,-6,3,-6,-1,-1,0
-3,-1,0,-6,-28,2,4,-1,0
31,0,-4,1,18,-4,0,2,0
-15,8,1,11,11,4,-5,1,0
-7,-18,-8,-12,-8,-1,4,-6,0
-32,-9,-6,3,7,-4,-4,-4,0
-3,-2,-2,0,-14,1,1,0,0
5,-6,4,1,-8,0,-4,1,0
17,14,4,7,17,-7,-5,1,0
15,10,3,-2,-2,-1,6,3,0
-21,-11,-8,4,-23,4,-2,-5,0
2,-3,8,8,15,1,2,-1,0
-12,-3,-3,0,18,1,2,1,0
10,0,0,6,1,-1,-2,1,0
-27,-9,-6,-14,-4,-2,-1,-6,0
9,-8,-6,4,-15,-4,-1,1,0
6,25,11,-11,-8,-1,-3,-3,0
3,-15,-4,-1,4,-2,-3,-1,0
17,13,2,4,-6,1,1,2,0
-1,-7,3,-6,2,1,-3,1,0
-8,-17,-9,6,-14,3,-3,-7,0
-15,12,-1,-3,18,0,2,2,0
27,-5,-2,0,-9,-1,-1,-3,0
1,-8,-4,-5,2,-3,0,0,0
9,-5,0,4,-1,3,-3,4,0
17,19,6,-15,-9,-2,-3,-1,0
-14,12,-3,18,2,-3,-1,-1,0
5,4,5,5,12,4,0,1,0
-11,-36,-8,-14,-18,-1,-2,-5,0
4,-17,-9,1,46,0,-4,-4,0
-18,-7,-7,-6,-53,-3,1,-4,0
4,18,3,-8,36,0,-1,0,0
18,9,4,0,-8,-2,-5,3,0
-9,-7,0,2,-15,-3,14,-1,0
-23,-5,-2,-2,15,0,-3,-5,0
-5,5,-12,-2,-29,-4,0,-1,0
14,-2,12,3,10,5,3,4,0
16,0,0,6,-5,0,-4,2,0
-15,2,-4,-7,14,1,-1,-3,0
3,-8,-2,3,-11,-2,0,-2,0
-1,12,-4,-5,9,-3,-2,1,0
-16,15,3,7,-8,-2,-3,-1,0
-4,-26,-1,-8,3,3,1,-2,0
-12,2,-4,-4,-8,-4,-4,-5,0
-17,-13,-4,-1,-9,-6,-1,-4,0
4,3,8,13,6,-1,-1,2,0
17,12,0,-2,18,11,1,-1,0
-9,-8,0,-4,-9,-5,-2,-3,0
-7,10,-3,-7,-12,-1,-3,-2,0
7,18,0,10,-7,-2,1,1,0
12,-11,2,-6,39,5,-1,1,0
-16,-9,6,7,2,-5,-4,-1,0
23,-24,-5,2,-1,5,3,-3,0
-44,-15,-6,-8,-8,0,-1,-7,0
1,14,0,-7,-10,0,3,4,0
-16,1,-1,16,-3,-3,2,2,0
-5,2,-4,-7,2,-6,-4,-4,0
28,13,-1,1,-4,1,-6,-1,0
-12,-28,-3,-7,-3,-6,-2,0,0
2,7,-4,-8,-1,2,3,3,0
11,10,10,10,10,2,1,4,0
-15,-10,0,-4,0,0,-2,-3,0
-11,13,0,3,-12,-4,-4,-1,0
27,2,-4,-9,-1,-5,8,0,0
-2,7,-1,6,4,7,1,1,0
-47,-23,-9,-3,-3,-6,-4,-7,0
5,-1,5,-7,11,-3,-5,-5,0
0,2,-2,1,-7,2,-1,0,0
0,4,-2,1,20,-3,1,1,0
11,1,2,5,-13,-2,3,4,0
7,0,-2,-3,-13,2,1,0,0
-23,-10,-1,-10,-4,1,-2,-2,0
-20,10,-1,-1,13,-2,-3,-2,0
17,3,-3,-1,2,2,-3,-1,0
33,10,1,8,-8,0,4,4,0
2,2,8,6,6,3,1,-1,0
-3,-1,-2,-13,-9,-1,-2,1,0
-14,-18,-4,4,-1,0,-9,-3,0
15,1,-3,-9,-4,-4,7,3,0
20,14,-2,1,2,3,0,2,0
-10,14,-3,0,3,0,-1,-1,0
-16,-35,8,0,5,-2,-4,0,0
10,7,-3,3,-2,-2,2,-1,0
0,-4,-4,-8,-4,-2,-4,0,0
7,5,-1,-3,-2,-2,1,-1,0
19,9,-1,-15,-11,-1,2,-1,0
-12,-3,4,18,9,-1,-2,-1,0
3,-5,0,-6,8,4,-2,-2,0
-9,0,-1,4,0,-5,-4,1,0
3,3,-5,3,-9,3,5,-1,0
-7,-9,1,-8,30,-5,-1,-2,0
-23,-5,-6,-11,-22,-1,-6,-6,0
-5,-11,3,16,11,5,3,1,0
9,4,1,-15,2,-3,-5,1,0
4,12,0,0,-19,-2,2,-1,0
-7,-14,-1,2,1,-2,-2,-3,0
-14,-7,-1,-2,-11,-2,-3,-5,0
2,9,-2,0,0,2,-2,-2,0
-11,4,-9,-21,-10,-3,-3,-1,0
16,-6,4,23,8,-1,0,-1,0
-18,-6,4,3,-16,-5,-1,0,0
45,3,1,5,6,4,4,1,0
-43,8,1,0,-7,4,-6,-1,0
-5,-5,-7,-13,12,-12,-3,-3,0
-1,1,-4,-8,-18,0,0,1,0
15,11,1,8,6,-3,0,2,0
1,-19,2,-2,-6,2,-1,-3,0
2,-1,-5,-1,-1,-4,-3,-1,0
9,-2,-2,0,10,2,1,1,0
-19,1,0,-4,-4,-4,-3,-2,0
-28,-8,6,-6,-1,-1,0,-5,0
-8,4,-2,-2,-7,4,2,-1,0
20,8,0,-3,-3,-1,0,1,0
8,-11,-2,4,11,3,-1,2,0
-6,5,-3,8,-5,-2,-5,-5,0
-5,-2,-2,-6,-26,1,-1,-5,0
2,7,1,-1,23,-1,-2,1,0
10,3,1,-3,-11,1,3,1,0
-14,-10,-3,4,-12,5,4,1,0
24,0,2,-17,22,-11,-2,1,0
-16,-5,-5,11,-16,3,-1,-5,0
14,3,3,-7,-6,-4,-2,-3,0
-33,-2,-2,20,9,1,-4,-2,0
-5,-2,2,1,-1,7,0,2,0
6,0,0,-1,1,2,2,2,0
7,19,-1,3,5,-3,-3,-1,0
3,-3,-5,-13,0,1,-2,0,0
-10,-2,1,3,2,1,-2,1,0
12,-1,-2,-12,-2,-5,-2,-2,0
-46,-29,-5,-7,-8,2,-3,-8,0
29,15,-5,0,4,-3,2,2,0
-2,18,14,8,8,4,0,2,0
22,17,4,8,-11,-3,1,1,0
0,-3,-4,-4,1,0,0,0,0
-25,-22,-7,-9,11,-2,-7,-4,0
14,8,-3,-6,-8,0,4,4,0
-3,-8,2,4,-20,-2,1,1,0
0,0,-3,2,31,-3,0,0,0
4,-7,-8,-7,-18,2,-3,-2,0
16,0,5,8,-1,0,-2,-1,0
-22,-3,0,-2,12,-1,-2,-4,0
2,-7,0,8,1,2,-1,1,0
28,3,4,-8,18,0,1,5,0
-17,-8,-8,-3,-21,2,-5,-2,0
-13,2,0,3,3,-9,6,-3,0
0,-10,0,-1,-9,0,1,-1,0
8,7,2,4,4,-4,1,0,0
-2,-3,-2,-5,-5,2,1,1,0
-2,-9,-3,0,1,0,-3,-2,0
-7,6,-3,-2,-5,-1,-1,1,0
18,-1,6,3,-8,-6,0,2,0
39,-13,0,5,-5,1,5,6,0
-43,34,-8,-10,0,-5,-8,-15,0
-42,-37,-1,-3,8,-2,-3,-8,0
3,-10,-5,3,1,2,0,-3,0
16,2,0,-4,3,-1,1,2,0
22,-11,-1,5,-18,0,-1,5,0
10,19,-1,-21,11,-1,-2,0,0
-7,-2,-4,5,-8,-3,-5,-3,0
4,13,6,24,4,1,2,1,0
18,-24,2,1,33,1,-4,3,0
-50,27,-4,3,-10,6,3,-8,0
5,0,0,-4,0,-6,-5,-3,0
-30,-18,-11,-9,-13,-2,-1,-7,0
16,-5,3,-5,-12,-2,0,3,0
20,-6,4,8,6,-1,2,6,0
2,6,0,-2,-4,1,2,-1,0
-4,9,1,-2,2,-4,-2,-5,0
-6,-10,-5,-5,-6,-2,-1,-2,0
14,-4,0,-1,-5,-5,-1,0,0
-10,12,2,-1,11,-1,3,1,0
0,-16,2,-6,6,3,-2,-3,0
-3,-3,2,7,9,0,3,2,0
24,35,-5,4,-14,-1,-1,2,0
-10,1,-4,1,-6,1,-2,-1,0
-48,-17,4,-13,12,-3,-2,-3,0
2,-7,-5,1,-9,0,-4,-1,0
7,-9,-3,-2,-8,-1,10,1,0
9,0,8,17,-15,-1,-2,1,0
5,7,-4,4,18,-1,0,-1,0
1,1,2,-3,1,-1,1,3,0
9,-2,1,0,8,-2,-3,0,0
-12,-4,-4,-7,-3,0,-1,1,0
29,19,3,1,0,0,2,2,0
-9,-20,-6,1,-17,-3,-5,-8,0
-28,-12,-4,1,4,-2,-4,-1,0
-11,-1,0,-14,0,-1,0,-3,0
2,10,3,9,-10,-1,-3,1,0
3,9,0,-10,3,0,3,3,0
8,0,6,1,-1,2,-2,-1,0
4,-3,5,8,-13,5,0,0,0
-4,0,-6,-6,2,-20,-4,-1,0
9,4,-1,2,18,8,-8,0,0
-2,-6,-1,-11,-3,-4,9,1,0
17,1,-2,14,5,4,6,1,0
-15,6,2,3,-3,4,1,-3,0
-48,-35,-10,-14,-12,-6,-6,-12,0
-6,12,-5,-14,-4,-3,-10,-2,0
0,0,1,10,5,-3,-4,-3,0
18,1,2,2,-13,-1,0,0,0
4,7,4,1,4,2,5,4,0
3,-6,3,-6,13,3,-1,2,0
19,-6,-2,-22,11,-1,-2,-1,0
-5,14,-4,15,-7,1,-3,-2,0
-3,-1,3,1,-11,-5,-1,-2,0
16,4,-1,1,-11,-3,-1,-1,0
-6,14,-3,-7,-5,-4,-3,0,0
6,-29,1,0,28,3,-3,-2,0
5,21,2,-14,-9,0,-1,-2,0
-4,-9,-9,5,-11,-4,-5,-3,0
-11,-14,1,4,3,-1,-3,-4,0
-17,3,-5,-10,0,2,4,1,0
24,7,5,7,7,2,7,6,0
8,-6,6,12,-9,0,-9,0,0
6,-2,3,-5,-21,-3,2,1,0
3,7,-8,-12,14,4,2,-1,0
8,1,-4,0,-5,-8,-5,2,0
-10,-2,-1,5,2,3,2,-4,0
-11,-4,8,2,11,-2,-2,0,0
8,-2,-7,-1,-11,0,-1,3,0
7,3,-3,-24,-3,3,2,1,0
-11,10,4,31,-2,-3,-2,-1,0
-4,-24,-2,3,-11,3,0,-1,0
-3,-8,3,-4,12,-14,-3,-1,0
-13,-2,-9,1,-15,2,-4,-5,0
19,11,2,-4,16,2,3,4,0
-7,-7,-5,-16,9,-3,-2,-4,0
-3,-9,0,3,-5,1,0,-3,0
23,24,-1,1,0,0,0,2,0
-27,2,3,-5,-8,0,-3,-5,0
9,19,0,17,-4,-4,-2,4,0
-5,-12,-4,-6,-4,-1,0,-4,0
-22,-27,-1,5,8,3,3,-3,0
13,8,0,-9,-8,2,-1,-1,0
-9,2,-5,1,0,-2,-2,-2,0
-2,1,-1,-2,-2,0,-4,-2,0
21,10,1,5,-25,1,0,1,0
-16,-19,-3,-47,22,-4,1,-1,0
15,-5,4,38,-2,-4,1,0,0
47,27,6,2,-8,1,0,3,0
-15,-19,-4,5,10,0,-4,-5,0
7,-4,-8,-9,-5,3,-2,0,0
-4,-17,-4,-16,-28,-2,11,0,0
14,10,0,2,23,8,1,3,0
-10,9,4,-6,11,-4,1,2,0
-3,-5,1,8,-7,0,-2,0,0
1,12,-1,-2,11,5,0,-1,0
0,15,-2,-7,-28,-1,-1,-3,0
-14,-29,0,15,13,0,2,0,0
15,-11,-1,7,-7,0,-1,3,0
-14,16,-1,-8,-5,1,-4,0,0
-39,-11,-3,-9,-13,0,-4,-3,0
3,19,0,-11,42,-6,-2,1,0
10,-6,3,17,-14,-1,-3,0,0
2,-2,-3,1,5,-1,4,-1,0
-7,-3,-2,-8,-11,0,0,-1,0
12,1,-3,0,-12,-1,2,1,0
-17,-8,2,0,5,-3,-3,-6,0
-4,0,-2,1,5,-1,-6,-2,0
-2,8,-2,-12,0,-3,-2,2,0
18,7,-1,19,-11,-1,-1,-1,0
-5,-6,2,-4,5,1,0,-3,0
-3,-5,-1,-3,6,2,-2,-4,0
5,-3,1,-1,5,2,3,2,0
7,10,0,-3,-30,-1,0,1,0
4,-9,-3,5,18,2,4,3,0
-2,19,6,-5,6,-2,-3,-2,0
12,3,-1,7,0,-3,-1,2,0
-38,-9,-1,-5,2,2,-1,-6,0
4,0,-2,6,-32,-2,1,0,0
-5,-6,-2,-14,22,-5,-6,0,0
12,-7,0,10,-2,9,10,0,0
-14,-20,-3,0,-2,-10,-5,-3,0
2,2,0,-5,-8,-2,1,1,0
-7,-12,0,-7,-2,-1,-3,0,0
-7,11,-5,1,-14,-2,-3,-1,0
0,10,3,-6,24,1,-2,-3,0
5,10,0,-3,-4,-1,1,-1,0
0,-2,1,5,2,4,5,2,0
-11,-31,-1,-1,-5,-3,-3,-4,0
-9,-1,1,2,-6,1,1,0,0
18,24,0,-6,9,-5,-2,1,0
-6,4,-7,3,-4,1,-3,-3,0
-3,-10,2,7,6,-4,-2,-3,0
3,-2,4,3,-11,0,0,1,0
0,4,-3,4,15,-2,0,1,0
-2,0,-1,-7,-9,0,-5,1,0
13,-4,-2,0,0,-2,5,2,0
-4,-8,-4,-5,4,3,4,-2,0
-11,-8,-2,-5,-11,-3,0,-7,0
11,20,-5,1,10,-1,0,-3,0
7,6,3,5,14,-2,-6,0,0
-13,-5,1,7,-11,3,0,2,0
24,5,4,-17,4,1,1,2,0
-21,-37,-5,0,-9,-4,-1,-3,0
-14,-18,-4,-3,-2,-3,-4,-5,0
13,15,2,-3,9,1,0,0,0
3,8,0,7,-16,1,-4,-2,0
-2,0,0,-2,10,-2,-1,1,0
-10,1,-1,-3,-10,-1,-2,1,0
14,-4,1,3,5,-1,-2,1,0
-12,-3,-6,-2,-6,-1,0,-1,0
22,12,7,0,-35,-7,2,3,0
7,-5,3,-2,46,2,1,-1,0
-16,-3,-11,-20,-8,1,-5,-3,0
-47,6,-2,1,-7,-1,2,-4,0
1,-2,1,18,0,0,-1,-4,0
11,11,-5,-1,-10,-1,0,2,0
4,-13,11,-2,-1,-2,-1,2,0
1,-6,-7,2,7,2,-2,-1,0
-10,-2,0,-12,-1,1,1,1,0
-6,2,2,6,-7,-1,-1,0,0
18,3,-5,-1,1,-1,-5,0,0
-10,-3,-1,10,7,1,1,-3,0
0,-8,-3,-3,2,3,-2,-1,0
-2,5,-4,-2,-5,-6,0,0,0
-4,-2,-5,-7,-10,-2,0,2,0
14,-20,2,0,-17,1,0,2,0
-1,15,1,4,42,1,-1,-1,0
-10,1,5,3,-1,7,-3,-2,0
10,4,0,1,-4,-3,1,0,0
2,6,0,3,-6,1,-1,1,0
21,0,-4,-7,-11,-3,-3,1,0
-19,1,-7,-4,-4,-2,0,-1,0
10,-9,2,-1,-3,1,0,-2,0
12,11,5,2,7,0,-1,-1,0
-17,2,0,8,-6,0,-2,-4,0
-7,-7,0,-22,1,-2,-3,-1,0
11,12,-4,19,-4,-2,0,-1,0
-1,-1,-1,-7,11,0,0,2,0
5,-7,-4,-7,-6,0,0,0,0
8,13,5,0,-16,-2,-1,0,0
-24,-24,6,3,17,0,3,-1,0
25,21,-4,1,16,0,-3,0,0
-28,2,-3,-12,-10,-2,-1,-2,0
-4,-2,-5,4,1,-1,-3,-4,0
-2,3,1,0,-12,2,1,2,0
-6,-5,4,6,0,-14,0,1,0
22,-1,-2,-4,-22,1,3,1,0
2,-12,-1,-2,40,5,-2,1,0
10,13,3,5,4,0,3,1,0
-22,-12,-6,-2,-12,0,-3,-5,0
6,14,-1,-13,-9,-3,-1,0,0
-20,-12,-6,2,-19,-6,-1,-4,0
13,-5,1,2,2,1,-2,2,0
9,13,6,-1,9,4,0,0,0
-18,-21,-5,6,-3,-1,0,-4,0
-26,-4,-1,-2,-3,1,-2,-1,0
0,7,-7,-8,3,-3,-4,-3,0
1,-8,-1,-6,-8,0,0,0,0
3,-3,5,2,10,-1,-1,0,0
16,4,-2,17,-3,-2,0,-4,0
3,0,2,0,-7,0,-1,-1,0
-22,-11,-3,-8,-7,-2,-2,-3,0
-12,-1,-3,2,20,1,1,0,0
5,0,-1,-12,2,2,1,0,0
0,5,2,-4,0,-6,-3,-2,0
17,-5,-1,1,5,1,0,3,0
13,-1,2,8,1,0,2,3,0
1,-2,-2,-2,-21,-6,-1,-3,0
-9,14,-3,-8,13,0,-5,-3,0
-1,1,-2,-7,7,-1,-3,-4,0
-1,-20,0,2,2,-2,9,2,0
-8,3,0,3,-6,3,-1,0,0
18,-9,10,3,-5,1,0,2,0
-23,29,-5,5,-2,-4,-2,-1,0
5,9,1,-9,-6,-3,-6,-3,0
12,-1,-1,3,1,-3,0,2,0
-8,-11,-7,-2,-5,-2,2,-1,0
-8,-25,-1,0,1,1,0,-1,0
4,17,-1,-5,-1,1,-2,-1,0
-9,-17,-2,12,2,-2,-1,0,0
-10,8,-5,3,-2,-1,-3,-3,0
8,-7,-4,-17,-9,1,1,0,0
7,-21,8,16,12,3,0,2,0
6,15,4,-5,11,-5,0,4,0
-22,12,-7,-8,5,0,-1,-3,0
-17,-11,-1,13,0,-1,0,-2,0
2,1,-5,-8,6,-1,-2,-3,7
3,-10,3,-1,-18,2,1,1,7
17,-4,-2,1,5,-5,-3,-2,7
-8,18,-3,3,-9,0,-3,0,7
-6,-33,1,-1,-9,-1,-3,-1,7
8,36,0,-2,-3,-2,1,0,7
8,13,-2,-2,-6,0,-4,0,7
-11,-11,-1,0,1,-2,0,-3,7
6,2,4,2,-1,0,0,3,7
-23,-19,-3,-11,3,0,-3,-2,7
-10,-18,-3,-3,-4,-2,1,0,7
14,-1,1,2,12,0,1,-1,7
1,13,1,-5,-14,-3,-2,1,7
9,9,-2,-13,-30,-3,0,1,7
11,-2,-1,16,19,-1,2,1,7
-7,-10,-1,8,24,3,-2,-2,7
-3,0,8,0,-9,3,-2,-3,7
-9,0,-8,-8,9,0,-2,-3,7
-10,-6,0,-15,-24,7,4,3,7
11,-2,4,-1,-3,-7,-4,-3,7
20,22,-8,1,-1,-1,-2,-6,7
-1,-13,-1,4,2,-2,0,1,7
-17,-8,2,4,-2,-3,-8,-5,7
18,10,4,4,-1,3,12,5,7
-9,-14,-5,-8,2,-1,0,0,7
-1,-1,-4,1,-2,-2,-4,-7,7
0,5,-5,-5,1,-1,-1,0,7
5,23,7,2,-4,-1,0,3,7
8,-1,2,5,-2,-2,-1,1,7
-1,-1,0,1,7,-2,1,4,7
-12,-19,2,0,-5,1,4,0,7
19,5,-5,-6,-40,-5,-3,2,7
-16,11,-5,24,50,-6,0,-2,7
6,-3,1,-8,29,9,-2,-5,7
-1,10,-1,-2,-9,2,10,10,7
-8,-7,2,6,-5,3,-6,-1,7
-13,-11,-1,-4,-21,2,-10,-28,7
-3,-2,-2,2,-1,-15,-5,10,7
17,19,5,-2,2,-6,9,11,7
3,-4,-5,-4,-1,5,1,5,7
-10,10,-1,-6,-7,1,18,15,7
9,-29,2,-3,2,-1,-16,-36,7
-10,-11,-5,-6,-9,-9,-6,4,7
-4,9,-1,1,6,-5,-1,5,7
19,0,-7,-2,-1,14,14,-4,7
-5,-11,-5,-7,-5,5,2,26,7
-7,-28,-9,-2,-30,-18,-24,-72,7
-12,15,-9,-13,14,3,-35,-10,7
-25,11,0,-8,28,-15,-1,19,7
7,27,9,21,-93,2,19,12,7
9,-13,6,3,68,5,-10,69,7
19,2,11,20,-22,6,15,15,7
-14,-5,-15,-22,-61,5,-5,-49,7
3,0,7,5,86,-38,0,9,7
-7,-1,2,15,-13,11,8,10,7
6,-16,3,-1,30,2,19,28,7
-7,-29,7,4,-57,4,10,31,7
19,-62,-5,-4,-15,0,-10,-22,7
-46,97,-19,-24,6,3,-35,-29,7
15,11,-9,-24,12,-13,26,0,7
16,-16,9,17,21,10,-11,4,7
-8,27,7,5,-73,7,16,19,7
46,-37,9,3,42,9,9,-54,7
-15,16,-21,-11,36,-19,-46,23,7
2,-8,3,6,-21,-11,5,20,7
6,8,5,3,80,5,7,19,7
30,-25,16,12,-81,19,39,53,7
-33,-41,7,-3,-97,6,9,-70,7
4,86,-24,-23,62,-22,-23,-25,7
-88,24,1,11,47,17,-9,-7,7
2,-17,-15,-9,77,-30,2,-4,7
61,-34,23,18,-47,29,35,20,7
-90,9,13,4,21,4,-26,-29,7
48,12,-26,-25,-84,7,-8,-32,7
26,-9,-5,-6,32,-18,1,5,7
-31,-41,-15,-1,4,-15,-18,14,7
50,20,13,13,12,17,36,75,7
4,2,6,-3,-3,-12,-33,-59,7
79,7,23,4,-128,5,13,-1,7
-7,60,-26,-18,118,-9,-14,-29,7
20,-41,-12,2,3,11,9,45,7
3,-46,5,1,15,9,18,21,7
-62,-82,1,7,-44,-7,-27,-69,7
-19,67,5,-4,-42,-10,-5,7,7
-16,37,-21,-23,50,-15,-36,-29,7
14,13,2,20,37,17,23,42,7
33,53,10,1,-71,20,24,-20,7
86,-44,25,6,74,-5,3,-69,7
-97,-76,-26,-11,-109,-11,-2,-16,7
-55,-54,-9,-9,98,-24,-20,5,7
-28,45,-14,-13,-74,9,0,11,7
-36,-10,8,9,117,-15,-76,18,7
127,27,30,38,27,29,59,40,7
-40,-37,-17,-21,-119,9,25,-3,7
-14,-21,4,-3,30,-8,-17,38,7
26,-39,-21,-25,-108,-9,-6,1,7
4,32,-9,-3,105,-10,-10,-16,7
123,36,37,37,-103,24,-26,78,7
16,6,4,11,19,14,86,-10,7
-64,47,-16,-12,-94,7,-35,-63,7
-76,-80,-35,-32,-48,-31,-11,-26,7
70,-38,1,1,42,2,5,-12,7
17,67,6,-30,-69,-13,-36,68,7
-36,-46,-1,24,80,-10,4,56,7
-23,-76,-13,5,-8,24,42,-30,7
-102,-41,-16,-18,20,-19,-28,-128,7
-8,1,5,15,36,15,0,11,7
-1,32,20,0,-61,3,44,118,7
48,83,14,-9,-61,12,-8,14,7
36,-22,5,7,107,-15,-18,30,7
-5,-38,6,22,93,1,-3,-27,7
60,-19,-11,2,-9,-12,21,50,7
-11,-30,-3,20,-62,-3,-13,14,7
-27,127,3,-23,-128,2,20,-35,7
-33,-73,-18,-9,100,-9,-28,18,7
47,35,16,3,-3,17,17,-23,7
103,46,45,23,10,12,-5,25,7
-55,-11,-45,-23,-80,-23,1,-22,7
-80,-40,-37,-23,74,-4,-6,-6,7
-55,-27,-10,-1,-16,36,39,-11,7
82,-6,30,1,-9,-10,-20,-67,7
-22,82,19,11,-62,-8,-4,127,7
37,62,4,-6,47,9,-10,20,7
-74,-122,-28,-18,66,-21,-39,-86,7
33,68,5,17,-89,-16,-14,-22,7
-33,-62,-1,-1,27,39,3,20,7
32,52,8,14,-97,-47,41,-15,7
30,102,34,-3,-40,-3,-6,-17,7
12,5,22,-6,-72,1,-16,112,7
-38,-74,-51,-28,109,-59,-81,-66,7
68,80,17,36,-50,71,38,-3,7
-6,-70,-27,-10,-74,-14,6,29,7
-56,-27,11,3,-15,18,9,38,7
47,69,-4,-13,-67,-11,-5,-39,7
-41,-35,-6,-7,18,7,29,46,7
113,55,40,29,20,2,-7,51,7
-52,-84,-14,0,46,-9,-42,-84,7
-32,-11,-22,-15,85,10,31,82,7
17,-111,-2,-8,-37,-5,-52,-51,7
-80,-38,-18,1,-4,20,6,-34,7
36,30,13,-20,3,-43,20,31,7
47,75,41,31,-5,24,15,-1,7
90,7,-15,0,54,-24,-17,37,7
33,-65,-7,4,-93,13,32,70,7
-127,-21,-36,-18,101,-14,-17,-95,7
32,-45,-4,0,-68,16,-1,-36,7
8,26,22,-31,-88,22,-9,81,7
46,68,15,32,30,-18,26,-50,7
10,66,-1,-4,-17,-6,64,78,7
-32,-69,-23,3,74,26,16,-44,7
-93,-48,-31,-13,-63,-39,-35,-13,7
-53,103,-4,-21,2,-5,-8,-46,7
53,-44,3,-4,-38,14,-8,-19,7
67,51,40,19,-27,-15,27,120,7
46,23,-9,-7,24,-4,20,-118,7
-89,-62,7,6,-90,3,-64,-59,7
17,-9,0,3,95,7,72,50,7
-50,-44,-20,-3,44,2,-10,-49,7
37,48,6,15,14,-15,-1,54,7
30,127,27,7,-40,13,10,32,7
-72,-68,-37,-26,-28,10,-3,-22,7
127,38,6,7,-7,-4,-10,-6,7
-29,21,25,24,35,38,118,-27,7
41,-39,-10,-10,59,-7,-27,-59,7
19,-42,6,10,9,4,-40,12,7
-61,-94,-34,-22,-16,-24,33,-54,7
47,54,4,4,-45,4,-111,-43,7
-25,-3,-3,-10,20,-24,3,7,7
8,-84,-18,-23,-11,14,-6,23,7
-58,58,9,23,-54,-40,-23,5,7
-71,-78,-13,-15,3,13,-15,7,7
36,13,-11,-10,75,-6,22,-4,7
-9,27,14,28,-18,-10,-56,-60,7
30,-19,9,-6,-30,16,90,60,7
7,79,10,0,-64,-23,-7,70,7
-45,-92,-46,-33,48,19,-25,-19,7
38,127,12,6,-80,-8,-87,21,7
59,41,22,19,73,48,40,-98,7
-35,38,20,10,-14,-24,0,91,7
19,-6,6,17,63,-10,73,32,7
6,-6,-8,-8,-44,8,7,-3,7
80,102,17,0,-14,-35,-63,61,7
34,-98,-38,-18,1,19,29,-27,7
-16,-41,5,6,-64,-4,-30,-32,7
-22,37,-9,-10,41,-3,23,-20,7
107,118,42,21,13,27,19,127,7
-105,1,-8,-3,-49,-15,-29,-73,7
-55,33,-14,-15,65,-35,26,60,7
29,5,2,18,-34,39,64,2,7
-49,-117,-13,-10,-7,2,-44,-128,7
31,84,10,1,-44,-31,-43,37,7
21,-7,13,-1,29,9,-7,-119,7
-24,50,-7,-6,-14,19,8,57,7
-58,-46,-3,8,71,-21,-26,66,7
-34,-28,-8,-13,-25,-15,0,-22,7
100,21,-5,-16,-53,-7,-20,98,7
-13,-13,-3,13,38,8,53,-36,7
-40,27,-9,-19,-26,-3,-14,-84,7
24,25,10,12,34,-4,-6,31,7
-38,-51,-1,6,-33,11,-10,66,7
-77,-96,-36,-22,31,-31,-78,-39,7
32,104,24,3,-37,29,26,-1,7
-34,-54,-21,2,70,24,17,22,7
39,4,11,16,-59,-9,17,38,7
-18,-25,14,-9,-15,-28,9,100,7
-49,-49,4,0,-41,7,-33,-34,7
3,-11,-28,-12,66,-7,15,-71,7
23,16,22,20,79,39,-15,-64,7
36,39,-2,-11,18,6,12,-73,7
26,51,-3,-2,-22,-28,16,64,7
56,-50,1,1,-58,-9,5,105,7
-45,-42,-14,-3,16,24,42,-87,7
79,79,12,-1,-5,-22,-7,8,7
-44,-60,-12,-18,-12,-7,-25,-33,7
-81,-31,2,-16,-36,2,-17,-35,7
60,26,-7,29,63,13,16,85,7
-59,8,10,-4,0,-12,-5,-46,7
39,41,5,8,-9,6,-19,-17,7
19,-52,-22,-15,3,-15,-8,58,7
21,30,52,-5,-32,15,49,92,7
-52,-67,-15,-9,3,-1,1,6,7
-29,12,0,3,-5,-11,-23,-62,7
18,-74,-11,2,2,14,-12,-3,7
15,-39,-35,-29,1,-9,30,37,7
50,4,3,19,68,0,2,-24,7
-26,40,21,3,-20,-15,12,-44,7
-11,11,1,1,0,6,-25,-11,7
-16,-5,-15,-12,-102,-8,-18,-55,7
59,39,15,16,81,15,-3,74,7
-4,10,-9,-12,-39,-6,15,36,7
4,1,9,20,16,15,17,-61,7
7,0,-8,-9,-38,-12,-20,86,7
7,33,-5,-3,-28,-20,-62,-49,7
4,-40,-15,-16,30,29,55,56,7
22,37,13,23,4,-4,-3,-11,7
-73,42,-9,1,19,12,-23,-40,7
31,18,21,5,-11,2,15,-12,7
53,-38,-6,4,10,18,67,32,7
15,-3,-14,-23,-12,-20,-32,-27,7
95,18,-6,0,4,-12,-22,36,7
-52,-10,-8,1,-35,3,-31,-12,7
72,71,35,5,-40,21,31,24,7
-79,9,3,14,41,-33,4,-62,7
-27,-4,-7,-1,-12,-10,-24,-23,7
50,-55,-6,-2,58,19,6,-14,7
-6,-10,-14,-3,1,0,13,100,7
-42,33,4,4,-36,8,-10,-117,7
-28,-6,13,-4,-19,-8,5,-82,7
-8,4,-12,-14,-29,-9,28,44,7
-23,-36,-8,3,3,2,-21,25,7
66,79,10,4,18,27,45,85,7
-36,-49,-3,-5,-11,-32,-91,-98,7
21,31,7,-2,-6,28,86,53,7
-1,-44,-14,1,17,-41,-71,-80,7
51,36,2,-2,19,2,16,21,7
-54,-46,1,-7,-12,5,0,-12,7
66,-20,-6,-2,-16,8,-22,-16,7
-50,-72,-3,8,25,-2,-18,-26,7
-26,-52,-14,-16,-3,-4,7,59,7
18,85,22,15,30,9,22,-25,7
-73,-27,-22,2,-8,-20,17,27,7
-16,-1,-5,-4,17,20,-21,-83,7
16,-16,6,5,-39,24,-1,30,7
7,-20,-15,-18,-1,-37,-5,73,7
-2,19,13,3,-3,-15,-23,30,7
88,42,19,31,-51,-32,-9,92,7
-45,-63,-14,-15,87,18,28,-101,7
-25,12,-17,-9,-51,22,-4,-50,7
2,0,8,0,14,-10,4,9,7
6,32,2,-7,-1,11,-35,-85,7
0,-42,11,7,-15,-12,-18,-2,7
-9,12,1,-2,10,2,22,48,7
-5,-30,-4,6,-26,0,2,43,7
-30,-17,-24,-20,16,8,-12,14,7
12,-7,-7,3,6,-13,2,-16,7
22,18,17,11,10,4,-20,4,7
22,37,6,0,-35,1,29,26,7
-7,20,-6,-6,-19,-11,37,123,7
-34,25,-14,-16,14,-2,-27,-66,7
71,-17,3,-1,68,27,14,2,7
-57,-63,-18,6,-7,-8,-35,33,7
-21,-24,-9,-12,33,-22,48,-97,7
32,86,20,7,2,12,-33,127,7
-5,-20,7,1,-74,-21,48,28,7
18,38,13,-5,2,2,-50,-38,7
5,27,-4,6,-18,0,16,8,7
-67,-86,-18,-22,17,-4,23,13,7
12,-16,-14,4,-7,9,-19,6,7
81,80,23,16,8,-3,23,10,7
-42,-82,-19,-7,-28,-11,-17,53,7
-11,16,4,0,-14,9,37,-19,7
-17,-7,6,-7,-45,6,-11,-10,7
-16,-8,-9,-5,60,-7,-24,-64,7
15,63,20,15,64,30,13,-54,7
63,45,13,5,-37,10,42,81,7
-38,-66,-36,-9,-12,-28,-63,-98,7
16,-1,18,-6,-45,16,-13,17,7
8,26,-1,-12,16,-9,-21,37,7
8,-7,4,13,43,4,66,-2,7
-4,20,-4,-4,-23,12,8,19,7
-12,-9,-2,7,-22,-11,-5,-27,7
36,-15,6,-4,5,3,-13,24,7
40,31,1,0,-3,-2,-17,-39,7
12,-19,-5,12,16,-21,-32,-29,7
-31,-29,-12,-5,47,26,39,-110,7
56,19,20,6,-8,-1,-3,85,7
-45,4,-6,13,-38,-13,24,-46,7
-36,36,-2,-1,13,1,2,125,7
14,-24,-16,-10,8,-3,-39,-109,7
-40,-15,4,4,-14,4,-7,55,7
47,18,8,-6,-25,-13,-52,-17,7
5,14,8,-4,15,11,51,64,7
-20,-16,-7,-5,15,-4,20,11,7
6,16,2,1,7,-7,-46,-32,7
-44,-9,0,6,5,19,11,-74,7
9,-19,-8,-7,-8,-32,6,10,7
7,-16,-1,4,-46,-15,-2,56,7
5,-14,0,-5,62,21,41,79,7
-18,-8,0,0,57,-23,-104,-66,7
45,-15,-4,9,-35,2,-4,-30,7
-6,57,6,-1,4,7,24,50,7
3,32,0,-5,-24,-2,-5,-24,7
-42,-60,-14,-21,-30,-3,27,76,7
13,-68,-16,9,19,8,-7,-34,7
-30,-7,-6,-13,-29,-11,-18,-42,7
44,-17,-6,5,-5,-9,-5,-23,7
48,61,19,10,-1,18,22,51,7
-11,55,25,1,-37,14,7,-10,7
2,-30,-4,-20,51,-31,-36,-71,7
-46,48,0,45,-2,30,30,-36,7
14,-44,-9,-9,-7,-11,-14,16,7
-35,-8,-6,-9,-17,5,-44,-17,7
28,16,9,11,44,-1,9,-57,7
-24,-39,-15,-26,4,-11,-8,-112,7
10,-2,4,18,24,22,19,52,7
5,83,17,11,-24,-12,-6,55,7
-83,-50,-18,-21,-55,33,26,77,7
9,-86,-27,-22,17,-44,-50,-48,7
43,49,-5,-3,-31,15,48,111,7
44,47,32,22,45,-7,-15,-105,7
-30,-49,-2,8,-28,-9,-11,25,7
-14,3,-7,-13,-22,6,12,32,7
-46,-30,2,6,-4,-14,-4,56,7
24,-5,-1,-6,9,23,34,62,7
14,-17,-18,-8,28,-13,-13,-22,7
0,55,11,9,29,17,-9,35,7
38,43,14,6,74,-19,-7,-115,7
-41,56,11,0,20,13,31,49,7
-7,-65,-15,9,-63,14,-40,-55,7
13,-29,-11,-18,-34,-40,13,-14,7
-31,6,18,1,12,2,0,11,7
-63,-107,-45,-32,5,-7,-71,-62,7
72,127,28,25,-4,-3,69,42,7
-30,-8,2,-10,-79,4,-18,82,7
29,57,21,13,18,-9,0,-75,7
-10,12,0,-9,-15,11,37,3,7
-38,-62,-35,-10,16,-20,-48,-4,7
9,12,9,17,54,7,10,-14,7
24,32,5,-2,-43,-6,5,25,7
14,-57,7,14,1,2,-11,-16,7
-26,39,4,-14,-36,6,22,0,7
-15,-10,-6,-9,-38,11,46,20,7
26,11,-2,-1,-5,10,-93,-20,7
-7,22,12,12,55,-3,36,32,7
4,-9,0,10,39,-27,-31,-80,7
-18,11,9,1,-7,-3,-61,-30,7
-32,-48,-12,-18,-20,11,16,83,7
-22,-28,-17,-5,-35,0,7,-78,7
11,-19,-4,-7,-43,9,26,89,7
9,32,0,5,79,-3,-14,-43,7
-22,-8,0,5,-32,-2,-42,-36,7
0,-13,17,12,1,-8,8,75,7
-58,-69,-15,-9,-16,11,-4,1,7
-6,-3,-10,-6,11,6,43,62,7
58,34,1,3,22,-9,-14,-33,7
14,-45,7,0,9,3,43,42,7
43,43,12,11,12,20,47,38,7
33,46,-2,-7,2,12,-1,-60,7
-62,-51,-12,-8,19,-16,21,-24,7
21,18,0,-17,-12,-8,-39,40,7
14,59,21,22,41,-28,-42,33,7
-15,-63,-9,11,-9,17,57,-83,7
29,19,-5,1,-38,-1,-22,17,7
-3,-43,-16,-25,-10,6,4,-20,7
34,-7,17,-1,-38,-12,-41,-42,7
64,68,10,2,37,14,-17,100,7
-86,-47,-25,-15,10,-15,-1,-114,7
31,9,-17,5,-29,-14,-16,48,7
42,40,2,-10,-5,6,0,39,7
11,0,18,12,1,-11,2,3,7
-15,41,17,6,-31,13,33,5,7
-52,-24,-17,-7,-21,-6,-38,-55,7
25,-3,1,-1,25,11,43,-13,7
-50,30,-9,-4,33,-5,-40,-6,7
48,-24,4,17,11,-5,22,40,7
20,64,-3,-9,-24,3,14,-48,7
-46,-11,21,0,-44,-3,0,-11,7
-23,-46,-14,-12,7,1,-40,-77,7
34,11,17,9,6,3,2,50,7
17,49,10,11,26,9,-10,31,7
-87,-87,-33,-18,-22,-3,4,-20,7
18,-16,-1,0,-30,-15,8,23,7
41,37,1,-4,-6,6,-20,100,7
18,42,14,6,34,-12,13,-70,7
16,-20,8,7,36,9,-5,56,7
-68,-60,-18,0,-26,32,51,48,7
-6,6,-6,-12,-33,-34,-23,-30,7
25,65,27,14,29,-8,13,42,7
16,20,2,2,8,7,6,6,7
53,-29,-19,-7,54,-17,-10,-22,7
11,14,-11,-7,-10,35,11,-66,7
-39,-57,-14,-12,-6,-15,-25,98,7
37,60,7,-14,-29,-6,-1,25,7
-24,-43,5,13,-14,7,25,-86,7
-5,0,-4,6,16,-16,-45,12,7
-58,8,-3,0,-8,5,41,5,7
65,48,5,-4,11,5,0,78,7
-17,-34,-9,-17,-90,-26,-9,-41,7
17,-6,-5,-4,74,26,56,41,7
14,48,15,18,0,4,-20,-78,7
-47,-45,0,5,5,3,35,126,7
-24,-79,-24,-21,-33,-7,-53,-18,7
4,3,8,7,-17,-9,-6,-23,7
28,30,-15,-3,22,9,-1,-32,7
-1,7,20,7,-46,-25,-38,-128,7
-14,51,-2,1,41,-4,-16,20,7
-31,-52,-15,-17,-79,9,5,-26,7
-19,5,14,17,81,-4,34,73,7
3,42,-6,8,2,2,-8,-49,7
-62,-41,1,-48,-1,-9,8,32,7
34,-1,2,41,-12,4,-20,-54,7
-16,-34,5,-1,-27,20,32,38,7
-29,-43,-14,-13,1,-24,-49,-51,7
31,83,25,23,-20,11,19,13,7
32,39,-1,-15,34,-3,16,42,7
24,-57,-8,0,-22,4,-13,-56,7
-6,-18,-10,-2,14,-1,-2,5,7
5,58,21,14,10,0,-10,21,7
-62,-76,-21,-20,11,9,2,32,7
37,35,5,14,-7,-17,-11,49,7
-21,20,-1,-8,47,22,15,77,7
-4,0,12,9,-28,-32,-2,-84,7
-9,5,9,-4,-4,-10,13,41,7
-1,-52,-15,-3,-2,-1,-21,-62,7
43,59,-2,4,-93,8,25,42,7
-56,-20,-3,-1,87,15,-1,-7,7
-31,-17,-4,-3,0,-12,-14,74,7
-5,-56,-24,-21,-7,-4,5,-42,7
39,70,5,2,-5,0,26,3,7
-3,4,9,29,-13,29,16,42,7
-54,11,-11,-17,5,-22,-38,-95,7
16,18,3,-5,-19,-3,-11,29,7
1,-14,8,0,19,8,-24,-53,7
36,-10,-2,-1,-49,-42,10,65,7
31,45,15,12,31,18,-14,8,7
-23,-24,-5,-5,-8,21,33,15,7
-59,-103,-22,-2,56,-20,-17,-36,7
48,15,8,0,-33,8,21,2,7
-19,20,-1,-10,-24,-20,-21,-18,7
29,73,-4,7,-7,3,-24,-63,7
13,-1,6,1,8,18,3,-17,7
-11,-67,-15,-7,-50,1,-6,74,7
34,-13,-1,2,31,5,3,-40,7
11,-20,14,5,63,-5,-12,11,7
-18,32,-6,8,-6,-6,-6,-2,7
-1,34,5,-2,8,9,-24,-54,7
34,7,9,5,-29,6,52,78,7
-45,26,-6,-20,-24,-13,-47,7,7
23,32,5,7,6,9,30,-91,7
-18,-68,-24,-24,-10,-14,-49,67,7
3,-32,1,31,37,4,1,-11,7
10,25,2,-3,9,0,14,12,7
44,-33,-5,9,-11,12,0,18,7
15,65,10,-3,10,11,27,96,7
20,-36,-5,-7,-13,-15,-16,-60,7
-49,-28,-3,-3,-1,-23,21,-2,7
-22,60,7,1,10,6,9,-15,7
54,-71,-15,1,-5,2,-13,-9,7
-97,-13,-9,-11,-43,-9,-14,-54,7
26,-31,4,0,-22,9,8,36,7
7,10,1,-2,44,0,46,-3,7
10,8,8,10,70,0,-22,12,7
50,61,2,-8,-37,-5,-13,7,7
-2,24,19,12,-30,-8,13,-9,7
-36,-77,-17,-13,-10,3,16,5,7
-10,26,-13,-1,18,-10,-29,-40,7
12,10,0,-5,69,9,-21,-48,7
-48,-51,-3,0,-28,2,15,8,7
10,17,-3,-2,-28,-10,-33,-64,7
-38,35,1,-1,-49,15,19,-36,7
3,-42,-9,-3,32,-41,16,24,7
43,42,8,14,39,23,-14,50,7
-5,-1,9,-2,-13,-15,4,46,7
-26,-41,-1,-14,0,-9,25,-36,7
21,39,5,0,-38,13,-29,-28,7
-36,-22,-18,-4,0,9,28,11,7
21,1,-2,-3,-7,2,-4,22,7
9,-17,8,8,-4,10,19,17,7
-52,15,-5,0,51,-5,-1,-5,7
26,-30,-2,-9,-15,-12,-1,-3,7
-23,-14,-8,3,-25,12,-31,-5,7
-25,33,-2,2,-1,-20,0,-73,7
34,23,5,11,-34,9,21,54,7
-34,-19,-9,-8,26,16,-34,-1,7
-3,1,11,5,-10,-1,6,-24,7
22,-19,-4,7,-8,-11,21,-27,7
-17,-3,1,-10,-44,-15,-7,98,7
-37,-11,-19,-5,37,0,-16,-100,7
-38,35,7,21,-7,-4,-8,-13,7
16,-22,-14,-13,9,10,-16,26,7
-16,-52,-9,-6,-20,8,16,-52,7
14,53,11,1,-52,-2,14,47,7
10,-32,0,-3,44,-1,30,62,7
-3,39,-4,-19,-6,3,-61,-98,7
-27,-37,2,18,30,2,5,-19,7
62,54,17,5,4,-10,-14,39,7
-3,-44,-1,0,1,-16,-27,52,7
25,10,-20,-15,-17,11,95,35,7
40,12,1,3,13,23,-22,-88,7
-37,11,-9,-10,-3,-12,-3,-58,7
23,19,10,4,-22,-9,3,38,7
-6,17,9,3,40,-10,6,42,7
-7,-36,8,8,-19,15,-1,21,7
19,83,14,8,9,-5,23,-7,7
12,-29,-10,-11,-51,7,-6,14,7
-4,-23,3,5,40,5,-18,65,7
18,4,-14,-11,-2,5,27,-77,7
-18,-47,-14,-9,-15,-6,-14,-1,7
21,23,0,-8,-8,13,-1,14,7
-32,32,2,22,-3,-3,5,-10,7
29,-58,-5,-20,18,-3,-4,92,7
17,18,6,1,-5,1,9,1,7
5,-17,2,-4,9,-4,-19,-88,7
53,-36,-14,15,47,-15,-12,57,7
-3,65,0,-10,-39,0,-7,-34,7
-10,-74,-4,-5,3,6,1,-52,7
-4,31,-5,-13,16,-16,-25,-5,7
25,68,37,11,-39,2,3,60,7
3,-34,-6,16,-20,7,22,17,7
-79,-73,-32,-18,17,-6,-18,-60,7
6,11,-11,-5,21,3,-1,125,7
26,3,5,7,-1,-2,36,8,7
35,74,20,-3,-14,-12,-18,108,7
33,-11,-1,6,-21,3,6,2,7
-58,-14,4,11,41,5,24,26,7
33,22,0,-6,-6,-5,-34,-14,7
-34,-26,0,8,-5,-5,-5,-66,7
88,20,1,-9,-21,-4,10,81,7
-32,-86,-11,-8,-11,-13,-12,-53,7
-19,-15,-11,5,-16,4,-15,-23,7
-6,62,8,0,-18,6,19,-5,7
32,1,12,6,76,15,6,37,7
-37,14,-8,-2,-13,6,16,-37,7
-38,-9,5,-11,0,-2,-23,-68,7
-3,-76,-13,-10,-3,-7,-11,34,7
-29,48,-3,3,2,-9,-30,-25,7
15,13,9,-3,-14,22,40,-51,7
-7,-19,-1,0,-17,-47,-20,-6,7
-25,36,-3,0,19,-3,11,69,7
26,-18,5,3,-39,-6,4,19,7
16,48,4,2,54,0,-18,-65,7
-10,-61,-20,-10,-30,37,-9,-25,7
9,6,-3,-15,4,3,11,3,7
-16,21,-3,16,3,-15,-17,-37,7
32,13,14,8,-28,0,1,45,7
6,40,7,4,34,7,22,33,7
-52,-29,-12,-10,11,1,-16,-34,7
-31,-35,-13,-2,-55,6,-10,-24,7
17,-14,-10,-13,8,-14,-5,3,7
-12,16,3,6,52,14,16,-25,7
26,4,6,6,-32,-34,3,79,7
6,19,8,-3,25,13,-17,-97,7
-20,23,-14,2,-27,1,14,-41,7
-7,6,7,-3,-27,4,-15,-12,7
36,-2,6,3,31,8,41,55,7
-6,-2,5,2,-27,-10,0,35,7
10,29,4,-5,17,7,-7,23,7
-53,-83,-4,-4,-9,-1,22,-8,7
-12,20,-9,3,0,-3,-15,-59,7
24,-7,-4,-1,-31,0,10,62,7
3,15,4,2,23,13,-2,-5,7
28,51,8,4,5,-10,8,41,7
-37,-84,-10,-3,3,-3,-12,-58,7
0,23,-1,-9,18,5,0,1,7
34,-23,-9,-6,-18,2,-4,92,7
-32,-14,-6,-2,-9,-10,-26,-37,7
16,27,6,6,-73,8,0,-18,7
5,28,3,5,95,-23,4,-5,7
8,-23,6,8,46,0,18,53,7
-2,-6,-9,-15,-18,3,-21,-44,7
-12,1,-5,1,7,14,13,-18,7
-3,0,9,-2,-55,9,5,-39,7
21,17,-3,-8,3,-22,-11,-8,7
7,-20,-13,7,-7,-8,12,70,7
48,24,1,-9,-3,0,5,-38,7
-93,-45,-7,2,7,-1,-25,-24,7
20,-1,8,1,-12,12,5,-27,7
-45,48,6,-8,-1,3,0,56,7
15,-49,-6,-8,-1,-17,-7,46,7
10,10,9,4,-18,4,19,12,7
-27,15,-1,4,-37,-2,-20,7,7
-6,-25,-3,-1,46,-4,12,-25,7
8,35,9,21,15,20,-8,69,7
15,-24,-1,-5,-48,4,19,-64,7
-18,8,-9,-5,43,-18,-9,-1,7
-7,-49,-5,2,-42,0,3,21,7
-4,27,7,-6,55,-9,-9,-15,7
21,5,-4,-3,-6,3,-13,29,7
4,-34,-6,4,-31,2,-19,-34,7
21,48,19,-5,-8,8,27,55,7
-4,1,-12,-9,11,-7,-6,48,7
1,18,2,-14,2,9,7,18,7
-33,-57,-6,7,-23,-13,-7,-84,7
-16,12,4,5,25,-12,-73,-88,7
-90,-63,-15,-4,-13,13,17,-12,7
41,28,4,1,14,-10,11,-4,7
16,27,-6,-11,-13,10,-11,-17,7
15,-4,9,8,-16,-26,9,99,7
12,-14,-1,8,17,6,35,-102,7
1,-3,1,2,-5,-2,-14,7,7
-5,13,3,-3,10,-3,-2,4,7
-1,-9,-5,10,-12,12,-3,-36,7
39,35,7,-2,0,0,8,13,7
-18,10,-9,-8,16,-6,-15,6,7
16,-7,-1,-10,-18,13,49,121,7
28,8,-1,-6,16,10,23,-127,7
-13,-50,5,0,20,-14,-21,-54,7
38,30,2,15,6,12,35,-13,7
-34,-43,-11,-1,-6,-19,-50,-55,7
18,-1,-15,-10,-53,9,9,-37,7
33,50,-2,-22,37,9,-1,39,7
16,-4,8,21,15,5,-1,-19,7
-14,-44,-9,13,1,-6,11,-3,7
68,46,8,-7,-4,0,10,69,7
-42,-15,-6,3,-36,0,-25,-100,7
-5,-67,-9,-16,3,-8,22,45,7
-32,20,9,-4,8,-3,-25,-70,7
-21,-15,-11,-14,-3,-1,-19,18,7
-1,6,1,24,-5,14,8,-1,7
4,-4,-8,-14,-10,-27,4,38,7
2,20,8,2,9,-10,3,-28,7
-16,-5,13,16,4,11,-8,7,7
-8,11,-6,-13,14,-16,-41,-41,7
-2,9,-4,1,1,9,-20,-46,7
35,-15,3,4,6,20,65,71,7
-28,0,-13,-6,0,-4,-6,-89,7
-7,6,-5,-5,-27,2,-1,-17,7
-18,25,1,0,25,-15,-53,-51,7
1,-4,2,6,17,6,23,51,7
9,-8,7,4,-9,-2,2,-9,7
-10,-50,-4,1,-20,-14,2,33,7
7,21,-8,-1,-5,-2,-12,-24,7
-3,34,5,-5,1,11,33,-43,7
9,0,0,4,4,-13,-33,-25,7
16,10,6,1,-3,11,-6,81,7
-24,-25,0,-1,-11,-19,20,16,7
-63,-11,-14,-16,-10,-14,-24,-34,7
-1,-14,-1,9,-7,2,11,9,7
26,-28,5,-2,14,-3,-4,44,7
-8,78,14,8,13,20,23,18,7
6,-24,-6,-26,-16,-2,3,20,7
-47,6,-11,-4,4,-1,7,-5,7
0,37,-1,4,-48,0,0,0,7
15,-47,2,2,16,6,21,51,7
25,17,6,11,32,-9,-46,2,7
-55,20,-2,-5,-12,12,10,24,7
7,-98,-14,-14,-61,-15,32,-26,7
0,15,12,11,46,1,-13,-13,7
6,-6,-11,-9,-29,-4,-5,39,7
18,-50,-7,7,16,0,-8,24,7
-7,42,14,-2,10,-2,8,-9,7
-4,-12,-3,3,-30,12,1,25,7
2,-5,2,11,8,14,-30,-5,7
41,35,10,-6,-1,-11,31,23,7
-55,4,-11,1,8,-16,-21,-50,7
1,-70,-23,-20,36,11,-25,-86,7
21,53,8,7,18,-2,14,34,7
-11,27,5,9,-21,3,-13,-76,7
5,-31,2,-18,10,1,-6,31,7
-8,36,3,-1,-37,9,24,-7,7
0,6,1,-2,-3,-25,-27,18,7
34,-13,-2,8,2,6,-1,-4,7
-12,14,-8,-3,11,8,-2,3,7
-2,1,-6,8,-23,-15,3,44,7
15,1,31,18,-36,1,22,-38,7
-12,-5,-6,-11,89,20,-16,-48,7
18,48,14,7,17,9,7,6,7
15,-18,-9,-8,-29,-30,-12,19,7
-15,18,-11,-4,-3,-3,26,19,7
-36,3,-6,-5,-35,-21,-6,-37,7
19,-11,-2,5,13,15,-12,-5,7
-38,-3,6,5,11,16,-22,-59,7
1,-32,-11,-10,-30,-1,17,83,7
25,9,2,3,11,4,10,-15,7
-24,20,-6,-13,-6,-4,-13,43,7
30,47,15,14,-6,-18,6,27,7
9,-1,-6,-2,-20,2,-16,45,7
-1,-65,-6,-3,-3,11,-1,-91,7
-12,56,1,1,-14,-17,1,-22,7
16,-58,-3,-3,10,-12,-7,95,7
-44,-22,-9,0,20,20,2,-71,7
12,3,-3,-11,-12,4,10,51,7
24,-12,3,2,1,-26,12,-30,7
-25,15,-1,-9,-8,14,1,-3,7
9,2,6,10,12,-11,1,-2,7
39,33,5,3,-17,10,-19,-29,7
-42,-44,-8,-4,11,-9,-19,-70,7
-20,-3,-14,-14,3,-6,-19,27,7
25,-14,4,19,22,0,6,29,7
-35,25,11,11,-1,14,9,1,7
43,41,2,11,7,3,-6,13,7
-7,-30,1,-8,-12,2,-4,-35,7
-7,5,2,-3,-10,-11,-9,-8,7
31,10,-3,-9,11,-5,-6,-22,7
-9,0,-5,0,-18,5,25,108,7
-3,-24,-8,-7,-18,0,3,-80,7
-3,61,10,1,64,2,2,-13,7
-1,-44,0,6,5,-2,1,59,7
10,2,2,2,8,11,-3,-7,7
-8,14,-5,3,-10,-8,4,18,7
14,1,-7,-10,-22,-3,-23,-47,7
-26,-48,-1,-16,-6,-9,12,43,7
9,10,2,9,9,34,11,-78,7
30,50,4,0,-13,4,7,77,7
-15,-1,-4,-24,-3,-6,-16,-108,7
-3,39,-2,11,10,-18,-12,65,7
8,-54,4,13,10,5,11,-9,7
-43,-44,-8,-8,-5,8,-30,-47,7
0,-9,8,9,-9,-9,9,18,7
-13,-83,-18,-11,-17,3,13,-29,7
21,68,-3,-3,2,-3,-14,35,7
18,-43,1,10,-8,8,25,12,7
-5,17,-3,-32,-8,-3,-16,-11,7
-3,-39,2,19,14,-17,-8,-57,7
-24,5,-1,7,13,-7,3,-6,7
3,10,0,-8,-27,10,19,37,7
13,10,-4,3,22,5,-9,-32,7
17,-1,4,1,26,-2,21,38,7
-5,19,4,-6,-3,-13,-18,-30,7
-24,-7,-2,2,27,17,7,77,7
16,0,-3,0,-107,8,-8,-59,7
-27,39,-2,-11,32,-13,20,33,7
-16,-31,-1,0,-15,-14,-30,15,7
28,36,9,9,-8,-11,-13,1,7
-30,4,-3,5,19,24,39,38,7
1,7,2,11,-7,5,-17,-48,7
-19,0,-1,-4,-6,-2,32,57,7
-5,-53,-5,3,2,11,-35,56,7
41,8,-1,2,14,-19,-5,4,7
-19,21,-4,-11,-12,2,-5,3,7
8,13,-10,-21,-19,-3,3,1,7
39,33,33,29,19,-1,24,20,7
-71,-71,-6,4,23,-4,-31,-23,7
-6,55,4,2,-22,3,18,43,7
28,-1,6,-2,-54,-6,-3,-36,7
-15,11,-24,-15,97,-6,2,-46,7
24,1,8,5,-24,-1,6,11,7
21,17,4,-11,-11,-13,-22,2,7
-9,-10,-7,11,28,29,33,55,7
6,-1,5,-4,-46,-15,-15,-79,7
6,21,3,3,35,-12,3,26,7
-9,36,-2,-5,-16,3,4,48,7
19,-81,-9,-7,7,-11,-24,4,7
-3,-15,-9,2,-13,-2,6,31,7
-6,-11,-10,-9,-3,3,-18,-56,7
-12,-36,-3,3,-23,-10,-10,9,7
16,35,9,0,16,2,-2,-42,7
26,1,10,6,-3,-10,23,22,7
-6,9,-6,0,1,5,-16,-16,7
10,-41,0,0,-4,16,14,-24,7
-17,4,5,5,11,19,10,-38,7
22,43,-14,-21,-6,-33,-11,21,7
5,-13,9,13,3,-4,18,-11,7
-37,-33,-2,0,-6,-7,-17,-23,7
10,10,-1,4,14,-2,-3,-57,7
-12,-24,-4,-4,-33,10,31,46,7
2,9,-2,-5,3,7,-4,-52,7
3,8,-4,2,66,-4,-11,-13,7
-10,4,1,-2,-16,-6,-4,9,7
-1,-19,3,-1,19,18,23,-43,7
-9,16,-4,1,-25,-24,-12,57,7
29,6,1,-4,-26,11,6,34,7
5,6,0,0,31,-14,11,52,7
-24,19,-4,-22,-23,8,-26,-81,7
-1,-3,4,12,-4,14,7,-4,7
37,-35,-10,6,5,-4,-11,-18,7
-18,-29,-16,-14,-19,-8,-18,-3,7
14,55,20,8,0,4,17,-11,7
-5,-65,-6,-8,11,-15,4,16,7
1,50,-1,-4,-11,-7,4,-5,7
-13,22,25,23,-10,18,-1,-16,7
-1,-39,1,0,20,8,-9,13,7
2,27,-7,-5,22,-10,12,-15,7
5,-18,-2,3,-46,2,3,-63,7
-14,-27,-22,-25,10,-16,-7,37,7
-6,-10,-10,7,-40,4,-2,-36,7
20,35,17,14,84,17,1,26,7
15,-23,7,0,-18,-9,5,30,7
-95,-18,-8,6,-3,-1,12,-33,7
-2,-18,-16,-29,-35,-24,-20,17,7
26,37,7,9,-17,19,-23,45,7
43,7,6,2,11,6,62,44,7
-68,-27,-10,-8,-7,-4,-56,-97,7
8,-14,0,6,12,3,-4,79,7
9,27,2,3,-16,1,10,36,7
-14,42,17,-6,13,6,26,2,7
59,36,-3,18,14,4,-6,110,7
-35,-43,-13,-10,-17,14,53,-102,7
-2,22,-1,6,30,-16,-61,-18,7
-87,-30,-6,-1,-18,-6,-32,-15,7
36,-18,2,-5,-48,-7,46,50,7
13,-4,-5,14,-2,-3,-10,-61,7
0,-31,-3,-6,48,-8,20,24,7
-12,13,-9,-2,6,5,-17,22,7
33,15,-1,-13,-35,-10,-7,-28,7
-18,11,6,5,12,-2,-59,9,7
43,-26,-14,-14,-82,-9,113,78,7
27,-23,-4,-3,13,2,-2,28,7
29,12,3,-1,4,-2,-29,-61,7
38,29,11,11,3,-3,-9,1,7
-8,-2,4,0,-33,1,10,26,7
-3,61,-4,-15,17,-8,-34,-24,7
13,-49,11,17,76,-7,3,66,7
-1,5,-7,4,-4,26,22,-46,7
-64,-32,-4,-12,-7,-6,-37,-111,7
28,13,-2,-21,-56,8,-16,14,7
4,38,11,23,13,20,36,-2,7
-6,22,-7,-9,51,-41,-32,-26,7
-5,-45,-12,4,-33,8,9,79,7
8,-11,28,19,-1,11,39,-35,7
-68,7,-13,-33,-25,-25,-46,-30,7
-45,-8,-10,-9,32,7,25,35,7
22,9,-14,-3,-29,6,-2,-77,7
10,-52,8,7,18,-2,-6,-27,7
25,42,4,6,15,9,16,73,7
-20,-39,-16,-14,-47,-20,-35,-21,7
-9,28,5,-3,-15,0,-20,6,7
-32,0,-9,-5,71,27,12,-6,7
53,22,8,14,-4,-23,37,65,7
19,30,9,-1,-21,-7,-35,47,7
-3,-28,-2,-3,-16,26,7,-54,7
-11,-5,-16,-11,2,-14,-46,65,7
-19,-22,6,3,7,8,-3,-6,7
-18,65,6,2,1,-1,41,83,7
9,-53,-5,-6,-8,-15,-30,-45,7
-20,-3,-4,6,-13,-3,0,-14,7
45,4,-3,-5,-16,7,-22,-68,7
33,-1,5,12,38,-1,20,-47,7
-12,28,12,11,0,2,-35,120,7
43,25,-14,-11,-3,6,55,107,7
17,-5,20,-13,9,7,-40,-80,7
33,-46,-6,27,-15,-19,21,-38,7
15,19,20,6,32,8,37,45,7
25,-26,-19,1,-17,-20,-9,-33,7
-71,5,-24,-21,-11,0,-5,38,7
18,24,15,-3,-17,5,0,-44,7
-20,-20,-14,-8,69,8,-48,-50,7
18,64,17,12,-9,-3,24,-1,7
1,-68,-5,0,12,2,9,81,7
-19,25,2,3,-44,6,-22,-43,7
-8,-17,-7,-2,21,-10,20,-46,7
5,6,0,-1,-12,6,20,69,7
-20,-7,-1,5,9,-3,-12,-77,7
-16,-17,-3,-19,30,-1,-30,48,7
-3,14,-3,2,-46,15,13,-7,7
-35,-27,-5,0,-13,-11,-52,-101,7
30,-24,-6,-9,-21,-2,24,32,7
-18,-17,-6,4,19,1,7,53,7
-17,41,12,8,4,-4,-33,-46,7
30,-10,0,-10,7,1,9,13,7
-19,-52,-1,21,-13,-8,8,16,7
4,10,9,0,9,20,-17,-31,7
27,-30,-18,-14,8,-10,18,31,7
21,69,8,12,-8,0,65,80,7
-19,-26,-26,-41,-58,-10,-78,-98,7
15,1,-3,13,12,-6,9,52,7
-21,34,4,3,47,-10,7,25,7
-24,-55,-3,5,-10,4,1,17,7
38,42,5,-4,37,24,3,-36,7
-14,14,4,5,19,-16,34,-19,7
13,20,-4,-5,-63,-11,-29,5,7
-27,-13,5,-1,-17,7,-24,-39,7
16,17,5,12,55,-14,16,1,7
-5,54,12,-5,-20,14,26,-26,7
-72,-57,-13,1,-3,-12,-25,-32,7
-9,-41,-6,-3,-19,-5,-38,-67,7
-9,-14,-5,-7,-18,9,20,37,7
20,-2,-1,-7,-8,-6,-23,-6,7
49,63,20,11,34,-4,39,69,7
-9,26,-6,7,7,23,8,66,7
-58,9,1,2,13,-21,-47,-17,7
-19,-33,-11,-9,5,2,-4,118,7
-3,-34,6,-11,-49,20,32,-8,7
-7,8,-5,4,5,-19,-19,-57,7
9,39,9,19,23,-3,5,59,7
27,-13,17,4,14,39,23,21,7
-6,18,-18,-26,-44,-40,-2,0,7
-28,-38,-4,8,66,-11,-38,-48,7
31,16,9,0,11,-2,19,18,7
