22,4,0,1,1,-2,-2,6,4
-11,1,4,11,2,12,0,28,4
28,7,-1,-4,5,0,8,20,4
34,15,7,5,15,33,-15,17,4
0,4,6,-1,4,-18,-30,-33,4
-28,-8,-2,1,-4,5,80,24,4
-18,-8,45,97,4,7,-46,8,4
-13,-17,-70,-104,-22,-33,57,38,4
11,-5,-8,-1,6,31,-20,25,4
40,8,-1,-14,12,26,38,-46,4
-28,-16,-20,-26,-5,6,19,2,4
0,4,30,37,7,-6,-29,-45,4
32,6,13,10,4,-11,-63,-42,4
-6,-3,-7,-14,-10,-21,-81,23,4
5,6,1,-8,-2,2,40,-23,4
-19,-2,7,20,-4,-1,-2,53,4
12,1,-5,-9,7,10,57,19,4
-10,-6,9,21,-3,-9,-77,-19,4
8,-6,-18,-26,-15,-36,-10,-24,4
-1,5,4,2,1,3,-4,52,4
-18,-4,-2,8,-6,-4,52,12,4
37,6,2,4,-1,7,39,-13,4
20,8,11,37,9,16,25,-3,4
4,1,-12,-31,-2,0,-22,-1,4
2,-4,-15,-23,-12,-26,-6,23,4
-16,1,18,62,8,4,-25,17,4
-7,2,-4,-20,8,8,81,18,4
-6,-8,-16,-25,-12,-11,-39,-3,4
1,-1,-14,-62,-8,-28,-26,3,4
-33,-5,-11,-37,2,47,78,56,4
52,-9,-4,-6,-5,-25,18,-44,4
-17,-12,11,40,-13,-29,6,14,4
-3,4,7,13,12,39,87,34,4
-31,-14,-8,-7,-18,-26,-114,-8,4
-1,7,5,6,10,15,29,20,4
32,4,6,2,6,-8,-43,-33,4
-25,-8,-4,3,0,-3,6,32,4
6,8,18,24,-2,-25,-12,-16,4
-9,0,-17,-38,-4,16,-2,9,4
2,2,-2,-2,5,-21,-75,-2,4
-20,3,11,22,8,44,72,-23,4
-9,5,59,109,23,6,-47,-23,4
-12,-20,-81,-118,-35,-35,-19,11,4
13,-1,-19,-14,-24,-2,-55,24,4
14,12,16,41,16,-19,21,-7,4
-1,-5,-5,3,7,31,-66,18,4
-33,-2,4,4,25,27,-82,17,4
3,3,8,-8,-25,-2,127,35,4
62,5,-7,-18,-17,-30,-42,14,4
22,-12,-13,-27,1,2,49,-15,4
-11,3,20,20,0,-2,-73,-8,4
-10,7,5,3,25,60,90,11,4
-12,2,10,12,-4,-55,-36,-15,4
2,7,-13,-18,17,-48,-45,3,4
-21,-17,-10,-6,-37,31,61,-4,4
12,2,19,64,11,-6,-15,-42,4
0,-5,-17,-72,-10,33,-35,-28,4
4,9,-7,-5,12,22,19,-19,4
2,8,14,11,6,-47,-84,8,4
-12,5,39,67,17,33,91,-18,4
-35,-10,-3,85,-2,-10,-128,31,4
45,34,64,25,5,4,119,-58,4
-6,-32,-82,-80,-53,-31,-80,13,4
7,-17,-39,-86,-8,-19,74,-7,4
-19,-14,-9,26,-17,7,-105,19,4
24,-1,10,37,40,71,37,19,4
10,14,51,89,36,15,-27,18,4
12,9,9,4,-16,-41,-77,-14,4
1,5,4,-18,-2,76,15,-3,4
-19,-5,-25,-40,-13,-119,-67,30,4
-11,2,13,-7,15,60,118,-38,4
-7,-7,-20,-12,0,24,64,20,4
10,1,10,-3,2,33,90,-10,4
-6,-9,-22,-13,-18,13,4,5,4
17,14,11,10,16,-2,11,11,4
-20,-6,14,14,6,-19,-128,5,4
-17,-5,2,41,23,14,31,-4,4
-30,-29,-35,-53,-35,-7,-23,36,4
9,14,20,5,9,-12,114,-11,4
7,25,95,121,6,24,-21,-12,4
3,-19,-100,-111,-25,-44,-43,18,4
17,8,5,30,-12,-12,-17,7,4
1,-3,11,49,6,8,-3,0,4
40,-8,3,44,8,1,2,-60,4
6,8,26,18,4,-13,4,-1,4
-9,0,-9,-53,-17,-46,-128,-16,4
1,4,11,15,-1,17,-7,-23,4
-14,-1,-9,0,12,11,127,-15,4
2,2,33,41,18,-4,59,3,4
-9,-2,-38,-50,-18,11,-15,-18,4
-23,-9,-11,-23,-19,-47,-65,-46,4
-2,-8,-20,-45,-17,-46,-128,-8,4
14,15,53,101,-8,2,65,19,4
7,11,17,4,11,33,71,39,4
19,1,-20,-34,15,14,-7,-5,4
-13,-33,-94,-128,-16,-15,-56,31,4
19,2,7,14,12,3,105,-47,4
-19,-13,10,66,-11,-29,-66,11,4
-20,0,45,96,-4,6,74,20,4
7,6,-3,-35,5,12,-45,-36,4
5,3,-7,-15,-3,-30,-38,-11,4
1,16,16,14,19,35,92,0,4
-3,-5,-17,-24,-15,-30,82,6,4
-31,-21,-10,7,-21,22,75,5,4
5,4,11,-17,-6,-20,-128,-8,4
-1,-10,-32,-51,-11,0,78,3,4
4,34,35,37,50,13,46,21,4
-14,-19,-12,12,-3,59,116,6,4
18,-12,-13,-21,5,-16,-115,15,4
0,3,43,81,-16,4,102,-20,4
-11,6,-11,-88,-9,-28,-2,17,4
8,18,10,-54,-10,-31,32,22,4
-7,-13,19,73,-8,16,11,-77,4
-18,15,52,-16,11,-14,-72,-19,4
-12,-53,-78,-64,-39,-20,-69,58,4
26,13,42,113,12,1,-77,3,4
-6,0,10,39,10,-5,-98,-37,4
-5,-4,38,86,6,-6,23,0,4
-4,6,24,45,12,37,73,-12,4
-7,4,-24,-42,4,15,35,25,4
-1,6,2,-20,15,6,76,11,4
-12,-2,-27,-24,10,8,-71,-11,4
7,-7,-18,-44,-35,-2,-90,1,4
31,6,-4,21,14,-39,-18,-61,4
-16,2,4,-12,-8,11,-17,26,4
6,-5,-33,-47,-12,-22,41,21,4
13,5,-7,5,5,31,-48,-6,4
-5,11,39,90,13,5,-43,16,4
-11,-4,-15,-99,-7,-9,-21,0,4
-8,-16,-35,-43,-5,7,-85,-5,4
-1,9,54,96,14,-17,17,-10,4
-41,31,96,93,-17,10,76,-15,4
0,-11,-66,-46,-17,6,-64,43,4
14,-28,-49,-62,-18,-1,-15,-20,4
-6,-24,-69,1,0,6,57,31,4
19,6,58,106,26,-73,-112,40,4
-19,-5,10,52,-9,58,106,-56,4
17,16,52,82,12,36,120,-12,4
-40,8,22,20,3,0,-12,5,4
53,10,-47,-88,-7,14,-50,-42,4
25,22,36,14,21,-32,-41,-71,4
-23,-11,-32,-46,-12,-26,-90,31,4
26,-2,12,-12,-5,19,5,-20,4
4,-5,-26,-30,2,29,32,40,4
-9,2,4,-17,-3,-23,-17,19,4
14,-3,6,24,1,5,-10,1,4
0,1,-4,-12,-4,-18,-42,-25,4
-20,-2,3,5,16,-23,2,24,4
-25,-16,14,30,-21,-4,-84,-1,4
-47,-12,-15,-12,-11,13,58,22,4
6,-2,-32,-78,-2,-15,-74,14,4
-39,-6,7,-15,-15,6,48,53,4
37,9,57,73,5,-35,8,-32,4
52,5,-27,-24,18,-18,-45,18,4
-41,-11,-51,-88,-31,12,18,15,4
-13,-38,-65,-52,-14,-3,30,9,4
18,11,24,31,13,3,73,2,4
23,-6,-56,-29,0,5,5,-24,4
30,23,93,114,20,6,4,-25,4
-1,3,-23,-25,-6,-6,-40,-2,4
-10,12,38,39,-1,6,18,-15,4
-36,1,31,30,12,13,-21,18,4
7,-5,-15,-14,3,-13,-92,-25,4
-28,-14,2,7,-14,2,-22,4,4
0,-10,-28,-41,-3,9,53,43,4
13,20,29,9,-6,0,31,24,4
40,6,-1,10,18,23,-44,9,4
-29,-10,10,-17,16,28,87,-24,4
0,-14,-33,-25,-25,-4,-36,49,4
-30,4,19,10,16,19,31,1,4
13,21,76,107,9,6,81,16,4
14,16,39,29,9,1,31,4,4
13,-19,-119,-128,-21,-14,26,23,4
7,-3,30,88,-15,-12,4,-13,4
-37,-9,13,41,10,-2,-15,13,4
58,72,93,117,14,9,-36,-21,4
-37,-96,12,-10,11,4,8,0,4
11,5,-41,-67,-11,-8,-41,5,4
5,20,-50,-96,-16,-16,21,6,4
-36,-42,-84,-45,-25,-19,-25,-1,4
-4,15,34,60,26,20,-25,33,4
6,-4,19,18,-9,-26,-53,-51,4
26,-5,10,9,23,3,81,1,4
-8,8,18,16,-29,43,127,-15,4
63,48,18,2,44,-32,-94,31,4
-15,-25,-8,-12,-9,53,115,-31,4
-21,8,-9,-9,-23,-1,-88,36,4
46,-14,-16,-14,3,-26,-73,-45,4
35,12,5,12,-1,8,126,47,4
13,10,4,3,17,0,26,82,4
-6,-4,14,-6,-10,-26,2,2,4
-6,-19,-27,-8,0,12,9,13,4
-26,24,79,96,4,0,-12,-26,4
-14,2,-35,-95,-27,-38,-44,1,4
6,-33,-61,-31,-5,20,31,-21,4
16,10,23,39,21,-11,-64,12,4
-30,5,-12,18,-18,-48,-30,-42,4
-10,-2,45,64,-4,14,-118,-7,4
9,10,51,52,19,7,109,-11,4
36,-10,-60,-80,-8,-4,-74,-37,4
-32,-9,-10,-49,-35,-70,-61,-12,4
45,5,2,25,14,50,26,-16,4
-20,-12,-12,-30,-10,-15,-63,-44,4
-35,2,13,14,10,6,52,-16,4
50,19,6,-2,0,-1,25,-47,4
-9,12,17,12,6,-30,-21,-2,4
11,12,30,31,-9,10,-10,-10,4
4,-37,-40,-44,-15,-22,-19,49,4
-16,2,-10,5,-4,37,31,-9,4
-29,-18,-23,95,0,-7,127,23,4
21,21,59,62,42,-27,-118,-17,4
-22,-11,-5,-37,-36,56,79,-37,4
-3,-8,-21,-18,7,75,40,40,4
3,5,16,3,-12,-83,-53,11,4
-7,-1,-9,-22,2,13,113,9,4
-12,-1,-1,-8,9,27,35,32,4
-12,8,10,23,5,0,-23,3,4
11,10,10,-48,7,21,-30,-22,4
9,-9,-36,-10,-9,-27,-37,0,4
-13,0,-18,-57,-11,-22,-38,22,4
-6,-6,3,-13,25,24,33,-7,4
-33,-17,9,68,7,-4,-83,57,4
49,12,70,18,-3,13,-3,17,4
18,12,-18,-3,13,8,21,50,4
18,-20,-106,-97,-25,-68,-89,46,4
-35,-24,-44,-30,6,94,100,-15,4
-18,-20,8,84,-33,-57,4,-2,4
5,13,54,100,11,33,89,-12,4
20,26,45,-98,2,-44,-101,20,4
32,3,-19,85,32,64,127,-3,4
-21,-13,-32,-51,-5,16,53,3,4
-10,7,12,13,8,-2,-58,-16,4
-14,-3,-6,-22,-2,-28,45,-10,4
21,19,27,-28,-21,-3,-39,10,4
11,20,2,1,2,-13,-12,-23,4
-6,-10,-36,-44,10,32,-25,23,4
-34,-28,-4,47,-7,-52,-1,12,4
-4,14,102,86,17,12,-24,-42,4
-43,-13,-74,-103,-5,6,-23,6,4
-1,-18,-82,-105,-32,-37,-39,0,4
-15,2,20,104,13,52,-27,-47,4
11,-26,-90,-128,-22,-87,9,-67,4
0,-13,-19,-43,-3,33,36,21,4
-7,8,68,91,12,-3,-77,-41,4
-13,5,16,32,-17,-28,-63,1,4
15,15,33,9,5,44,103,3,4
22,17,32,105,47,12,-78,-17,4
-18,-7,-11,-77,-20,-49,-114,-7,4
9,-3,-13,48,3,63,127,-6,4
1,7,-1,-15,-2,-44,19,6,4
-5,-8,-21,-34,-19,-4,16,8,4
10,6,12,29,25,23,46,12,4
-12,2,8,2,0,-9,-15,22,4
25,0,-15,-25,-11,-16,-88,-77,4
1,-6,-2,17,-4,27,40,-1,4
10,18,70,108,14,-33,-28,-9,4
20,2,-46,-99,-18,15,20,22,4
-64,-4,-2,-8,7,-7,-71,90,4
79,-14,-55,-20,-2,25,34,-58,4
15,-2,-3,-19,-13,-15,-8,16,4
13,28,93,91,14,22,28,6,4
0,9,41,82,-5,-2,71,33,4
-20,-19,-48,67,-1,-14,-9,3,4
-11,-30,-95,-107,-13,-23,14,29,4
11,-15,11,103,4,35,-10,-44,4
-5,-2,17,63,-12,-9,-24,-11,4
-10,27,92,76,10,-11,-104,6,4
13,7,18,30,-1,-5,61,-16,4
-7,7,-35,-64,-1,1,-36,7,4
0,7,-4,-46,7,2,-35,29,4
-78,-19,-4,-42,-4,-23,6,54,4
38,-7,-14,-1,-12,-17,-42,36,4
26,-2,-9,-37,11,29,76,-18,4
42,-8,-20,-24,-12,-18,-92,-18,4
19,22,94,94,-7,32,57,-45,4
-21,-24,-90,-79,-16,-12,5,17,4
3,0,25,62,9,-5,104,10,4
-17,-13,-13,1,-9,9,40,-19,4
20,31,82,77,12,8,39,24,4
-11,17,13,-12,9,-19,-73,-10,4
-11,-25,-106,36,-8,15,41,6,4
3,6,-51,2,24,3,-35,32,4
-1,-26,-16,-40,-10,-13,-17,-1,4
-18,-14,-19,-48,-3,6,79,49,4
-33,-1,13,-13,-10,-13,-66,12,4
33,3,14,72,-4,-22,-35,-11,4
6,10,30,46,21,14,-59,5,4
2,15,69,95,2,34,72,-72,4
-17,-19,-24,-53,-26,-33,53,5,4
-28,0,3,-40,-5,-4,-34,40,4
1,-1,-26,-46,11,17,90,28,4
-3,-2,-1,-3,-3,-24,-16,39,4
9,5,3,-29,7,30,1,-30,4
-21,-2,9,-16,-1,-9,13,-23,4
6,0,-33,-37,-9,-11,30,10,4
5,5,14,27,10,9,15,-1,4
-1,14,36,31,3,0,25,20,4
-6,3,-9,-52,-6,-13,-48,18,4
2,4,9,27,-1,8,-13,-35,4
-10,7,4,115,-4,-12,-44,-15,4
-2,5,-5,-29,-1,-4,-67,-36,4
33,-77,-82,-118,-1,11,120,3,4
-30,-12,-82,-85,-15,-31,-65,2,4
15,15,63,72,12,9,-13,-93,4
-49,-9,11,45,-8,0,82,0,4
15,28,42,54,13,35,47,-43,4
6,-6,4,-15,-16,-37,79,27,4
-1,8,11,-11,11,55,77,12,4
-7,-9,-3,-19,-3,-24,-41,6,4
-11,9,11,3,4,19,37,-13,4
-4,-3,-4,0,-9,1,48,2,4
14,21,7,-36,1,-12,-58,6,4
3,-9,-23,39,7,12,-26,13,4
-15,-3,7,-7,13,-12,-72,-13,4
-9,15,52,94,-7,-13,-48,18,4
14,-7,-5,-17,-5,-2,-79,17,4
3,-15,-46,-36,-2,12,35,-25,4
6,12,-27,-69,-7,-20,-71,-27,4
6,-27,-56,-12,-10,3,-27,-7,4
1,-2,76,117,10,-3,64,35,4
5,3,8,-17,-3,-21,-75,3,4
1,10,16,52,-6,20,39,-9,4
-16,-7,-13,-60,-14,-32,-41,-36,4
-3,8,-20,-49,-4,22,35,-36,4
13,-8,26,6,7,9,1,-18,4
-9,4,1,7,-1,-8,17,37,4
22,4,-5,-62,6,7,-12,1,4
4,0,-11,38,5,-4,8,4,4
-5,6,13,-17,-5,-35,-61,-3,4
-10,2,21,21,-6,-15,-2,14,4
-14,-5,-13,-16,6,-1,-46,-6,4
-3,-13,-21,-4,-16,-24,-105,-4,4
5,24,68,71,3,11,65,9,4
2,-12,-49,-82,-11,2,10,31,4
44,12,20,125,19,-16,16,9,4
11,-14,-76,-128,-10,6,90,-19,4
-12,-2,10,15,4,25,55,-11,4
3,0,30,37,-2,-30,-119,-65,4
-6,46,38,5,16,42,94,30,4
-11,-47,-8,-6,-1,-9,-18,12,4
-3,-7,-9,-27,2,10,25,10,4
-19,4,7,25,7,20,19,0,4
2,3,-1,-15,-5,-21,18,6,4
-23,10,17,29,-1,-6,-9,-40,4
-3,-14,-30,-55,-40,-53,-82,12,4
-4,-6,-9,9,7,10,36,15,4
-4,4,55,67,0,-3,-128,-16,4
21,18,33,20,14,4,2,24,4
18,10,7,37,14,13,48,17,4
-20,-18,-94,-80,-31,-13,32,26,4
21,-26,-62,-128,1,-12,35,-13,4
-16,-2,20,107,-8,-24,-42,-28,4
39,7,30,15,13,33,-28,-13,4
-5,3,43,61,15,45,110,10,4
-15,-7,-3,-10,-16,-29,-63,-4,4
11,6,-9,-36,-10,15,26,16,4
3,3,-18,-37,-10,-7,-62,10,4
-39,1,18,27,-4,-27,1,70,4
-4,-18,-23,-9,7,13,-44,-71,4
6,10,14,-10,11,14,34,17,4
-20,0,-8,-12,-11,-43,57,0,4
8,6,22,9,-8,18,-63,3,4
-5,7,8,39,10,-4,-36,25,4
-16,11,53,25,-2,15,92,-10,4
-1,-2,-10,-2,3,-10,-19,-2,4
4,-11,-65,-85,-17,-54,-38,-17,4
26,-4,-39,-56,14,34,115,39,4
-19,-16,0,55,-23,1,-17,-4,4
14,7,22,28,13,33,-34,21,4
18,13,42,57,15,8,-15,-35,4
-5,1,6,-10,-10,3,-54,-25,4
41,6,-18,-42,22,-13,48,-36,4
-3,4,1,-4,10,-65,-61,-72,4
10,-15,-16,0,-26,3,-44,-14,4
-11,-10,-7,12,-13,44,75,-3,4
4,2,-6,-3,8,17,7,23,4
9,21,44,55,6,12,-25,-10,4
13,10,-5,-28,13,-10,11,-14,4
-5,-18,-94,-44,-33,-43,-46,17,4
-21,-2,-5,17,25,34,65,-32,4
-7,-32,-36,10,-28,-13,79,43,4
-14,3,58,83,15,23,23,7,4
-17,4,39,33,-2,4,21,9,4
37,31,24,-24,12,11,93,28,4
-26,-12,-63,-56,2,-4,-8,-11,4
35,6,15,1,2,-27,-49,16,4
-17,-10,-13,-14,-9,27,99,-47,4
-4,-7,11,18,-6,-23,-103,31,4
-7,8,21,2,1,8,-21,-3,4
-8,27,-3,-12,-2,6,-22,-19,4
4,-24,6,18,7,1,-22,8,4
-7,4,14,24,0,-21,-26,-29,4
-9,-13,6,23,2,32,18,4,4
-5,-5,-33,-37,-8,-32,-79,12,4
7,15,-9,-32,2,-11,96,-6,4
-22,-16,-17,-5,-28,-26,-62,7,4
13,5,14,1,3,45,-8,17,4
-10,-19,-23,9,4,-11,-24,-18,4
11,8,32,33,9,-2,-46,3,4
40,-1,-17,-34,-14,-47,-26,-10,4
-13,3,2,-13,9,9,15,17,4
7,7,28,28,8,25,107,24,4
0,6,17,24,-4,-12,-61,6,4
-10,18,74,69,18,16,-19,16,4
6,-21,-92,-101,-20,-14,20,15,4
14,-6,-3,57,-9,10,21,4,4
23,-8,-56,-39,0,-23,-33,16,4
-15,-8,7,33,17,36,-46,-1,4
-8,11,37,25,-2,3,95,2,4
3,-4,8,-5,0,24,50,13,4
-5,5,16,22,2,-43,81,10,4
-3,3,-23,-42,-13,62,55,0,4
13,-1,-5,-16,-11,-78,-98,-11,4
-5,-8,-17,-23,-7,3,56,-5,4
1,8,31,25,3,30,18,5,4
-5,10,43,63,14,11,15,8,4
-21,6,8,-64,9,-1,-39,4,4
23,9,-7,-16,2,-6,4,13,4
-17,0,-103,-117,-60,-47,-106,32,4
-7,-67,-38,37,-7,-26,-2,2,4
17,31,112,127,33,26,56,-40,4
-7,-31,-71,-67,-16,-17,-48,23,4
29,-1,-21,9,4,31,30,21,4
62,23,30,40,0,-41,22,-45,4
11,-2,55,113,-6,38,71,12,4
-18,29,80,91,15,15,41,-17,4
-3,5,18,23,10,25,71,-6,4
-15,-3,-44,-84,-11,-23,-1,15,4
14,10,-19,-40,11,11,0,-1,4
2,3,-20,-44,-2,-6,-12,-14,4
-21,-14,12,5,-3,-7,-41,-2,4
-12,0,-13,-25,3,7,2,14,4
-16,-9,-40,-52,-6,-8,-44,10,4
-6,-8,-7,-3,-3,2,-28,2,4
-11,-7,36,39,4,0,-20,-7,4
-25,7,-7,-26,8,-45,-100,40,4
-45,-33,-56,-29,-26,40,77,60,4
4,21,69,105,12,18,-45,-20,4
-24,-10,22,54,5,-20,42,-11,4
3,-4,-59,-94,-18,-4,37,8,4
2,-15,-106,-105,-14,-26,-48,-22,4
-3,-3,33,104,2,-41,37,-12,4
0,14,37,44,9,41,81,-15,4
-11,4,30,98,-10,36,78,12,4
6,2,7,-21,33,24,-7,-13,4
-2,-5,-19,-58,-9,-30,48,-6,4
5,8,18,10,8,0,50,-15,4
1,-3,-11,-28,-17,-21,-9,1,4
26,7,2,-25,8,20,73,1,4
-12,-8,-12,-7,2,22,-60,-8,4
-3,-2,9,-2,1,-15,-36,19,4
14,7,-9,-20,4,7,-65,-14,4
-14,-12,0,29,-10,-20,-42,-29,4
-29,-8,11,3,-3,-15,-18,-7,4
-6,-11,-21,-60,-6,-5,-63,3,4
7,35,94,99,28,39,52,-62,4
1,16,-3,24,-18,-63,-128,-39,4
-13,-35,-94,-128,-29,7,127,4,4
9,-13,53,115,-3,30,107,7,4
-13,-32,-33,29,-2,-18,-72,-3,4
41,23,39,76,4,7,106,-10,4
10,41,90,127,26,35,110,-14,4
-5,-24,-46,-87,-10,-41,-128,9,4
-4,-7,-28,-33,-5,-5,62,21,4
0,7,17,-16,3,-2,-14,-3,4
21,5,-19,-35,2,21,10,12,4
-5,10,13,13,8,-9,-9,-15,4
-18,-16,-14,-26,-8,-3,-12,18,4
0,-4,0,-14,-14,-45,-31,4,4
11,8,15,9,10,22,3,9,4
-14,-2,-3,-2,14,26,-42,-1,4
-26,-4,-12,-36,-3,-4,51,3,4
-12,-22,-13,9,-20,30,43,18,4
4,-2,-6,-18,-8,2,0,22,4
21,-1,26,56,13,-14,-18,-56,4
28,52,32,1,17,7,-20,7,4
4,16,28,24,4,-2,9,17,4
16,-6,-44,6,-12,-27,-81,-68,4
17,-26,-128,-128,-11,-2,-16,-29,4
-11,-39,9,123,-22,-17,-56,-11,4
-1,-10,29,53,5,3,93,9,4
1,31,82,73,13,-10,-46,4,4
-2,26,15,-28,6,9,55,17,4
11,-3,-36,-84,-1,2,99,-3,4
-7,1,2,-7,-9,-19,-57,14,4
-12,-20,-8,-13,6,4,45,-4,4
-11,8,21,22,-12,-10,98,17,4
6,3,-6,-32,3,33,-49,25,4
-4,-5,-15,-26,-6,-28,35,-8,4
-18,-17,-7,-18,-5,-33,-66,2,4
-12,-5,8,3,-15,-24,-12,7,4
-6,4,22,45,0,80,-38,2,4
27,8,-23,-49,28,-41,-128,18,4
-4,-8,-15,-12,-2,-20,126,-1,4
-5,16,64,93,17,13,-69,-27,4
19,9,51,28,13,-27,37,-15,4
-18,-41,-77,-32,-25,49,74,13,4
-32,-19,-27,18,-20,-32,-48,-48,4
-18,1,-2,59,-6,7,23,39,4
18,-9,2,-40,-3,-21,-18,-11,4
15,19,11,18,13,34,67,6,4
28,-9,-4,-41,3,6,-27,13,4
21,16,29,18,4,9,-2,-10,4
1,10,-3,-44,-2,-14,-9,-7,4
5,5,-11,-12,-5,-8,-3,7,4
2,8,2,-13,3,8,-14,14,4
-23,-16,-2,-7,11,37,86,7,4
-51,-31,14,94,-16,-44,-54,-6,4
-37,-30,33,-26,-3,13,76,-20,4
2,-20,-88,-76,-29,-8,31,38,4
24,23,17,-8,18,2,-32,3,4
2,16,7,15,-4,-29,-64,53,4
0,2,14,27,-10,-10,52,-1,4
27,36,62,85,23,20,-43,-18,4
9,-3,7,-39,-8,3,53,23,4
4,-32,-127,-86,-6,17,127,12,4
-17,2,30,75,6,-6,-128,9,4
-12,8,23,-15,2,12,57,37,4
-2,1,8,44,1,9,45,-2,4
-24,5,13,-19,4,3,8,-22,4
21,4,-9,-28,-6,-6,-13,-4,4
-15,-4,2,0,1,-3,-34,-2,4
-15,-6,-2,4,-2,-8,-34,-1,4
-10,-10,-17,-34,-9,-16,12,-22,4
-5,-1,-10,-2,-4,22,-64,28,4
-1,7,38,64,8,16,-6,39,4
34,8,33,7,3,-8,12,-21,4
23,6,-22,-119,14,6,65,18,4
-10,-18,-44,21,-19,-36,101,-3,4
-21,-26,-10,4,-10,10,13,4,4
-13,0,-3,-3,-1,20,-74,-2,4
-10,23,67,47,20,35,126,17,4
18,6,-3,-23,13,31,-62,-33,4
-15,9,-14,-56,-7,-28,17,8,4
-7,-12,-44,-23,-9,-5,46,18,4
-1,-15,10,80,4,-7,-75,9,4
0,4,16,-17,0,-2,7,6,4
15,14,9,0,5,7,-45,-4,4
-6,4,6,18,-3,-7,-30,-10,4
18,12,-19,-53,8,-14,-125,-11,4
-37,-15,11,55,-10,18,114,-5,4
20,-12,-5,9,-4,23,-83,0,4
-13,-3,-16,-42,-5,0,108,23,4
22,4,-7,27,-8,2,14,-5,4
9,20,31,-6,20,-29,-14,-19,4
-4,-1,0,15,16,14,-84,-19,4
-31,-16,-15,5,-23,10,56,-8,4
-3,29,83,54,8,-25,-103,30,4
-31,-13,-35,-78,-12,11,82,-20,4
-25,-34,-74,-13,-16,7,78,-16,4
13,-8,-1,5,-5,-37,-108,8,4
-3,5,30,74,-8,17,124,-14,4
24,16,11,-49,31,12,51,20,4
-5,-10,-17,-2,-20,-15,108,-9,4
9,6,-3,-20,6,22,-8,-9,4
-6,-2,-4,-1,-1,-4,-8,-16,4
8,12,29,23,4,-2,-48,3,4
17,12,18,-19,11,-5,-5,8,4
0,-1,-6,4,2,-14,-40,-33,4
39,-13,-28,-24,-7,27,43,-21,4
9,6,0,34,-2,-19,-32,8,4
-3,-6,7,-13,4,-17,-20,20,4
-21,-2,15,19,-4,-1,13,10,4
-20,-15,-35,-27,-5,-11,-37,2,4
13,-4,-1,14,2,7,62,-21,4
18,23,42,24,13,-1,-83,-10,4
-10,-6,-22,-19,-20,-5,-50,-5,4
-12,-14,-45,-12,-23,23,76,1,4
1,-5,2,8,5,-42,-128,4,4
-3,1,16,11,6,36,108,8,4
21,31,93,64,38,13,7,-4,4
4,10,8,-89,4,-16,30,13,4
7,-12,-73,-19,-29,16,-61,11,4
9,9,13,29,6,8,34,-12,4
-5,-9,-21,-2,-13,-49,-20,21,4
-43,-12,43,58,24,31,-12,-2,4
-11,-4,-12,-35,-12,-24,-13,-9,4
-15,-25,-38,5,-13,1,-54,-58,4
-11,6,2,4,6,12,99,-3,4
9,-15,-8,-15,8,-33,-46,2,4
-9,12,41,30,1,46,85,-4,4
-9,3,-5,-22,-11,-40,-95,3,4
-9,-2,-25,-3,-23,-20,-73,-3,4
23,11,-6,-5,5,19,-58,-7,4
16,11,14,12,18,-4,-101,-8,4
6,4,15,-4,4,3,124,6,4
7,-1,7,4,11,-2,18,-4,4
-14,1,-18,-43,-15,-9,2,-1,4
13,-5,-13,23,-2,-15,-22,23,4
-6,20,96,38,19,20,-35,4,4
20,-28,-128,-104,-23,-2,-27,4,4
-15,-13,-2,41,-22,-30,-14,-20,4
-25,4,35,17,8,-29,-100,-7,4
-22,-2,0,1,-1,45,100,44,4
-2,11,36,23,24,13,-58,-3,4
33,-18,-27,-7,-24,19,-47,-5,4
-30,-23,-10,6,-4,-28,-5,18,4
-17,-4,-13,-6,-2,-32,-77,12,4
4,9,18,-5,8,12,3,14,4
-16,8,-20,-7,-1,-14,-16,-2,4
-9,3,35,26,-4,11,85,10,4
21,9,-19,-45,3,-16,-52,-1,4
2,-8,-4,30,-3,22,79,1,4
-7,3,12,9,-1,-22,-66,-25,4
9,-16,-31,-25,-15,41,47,21,4
1,1,-10,13,-6,-17,87,-10,4
-7,-2,6,-28,-1,0,-75,-8,4
0,-6,-31,13,1,-7,-2,27,4
16,11,23,33,10,8,35,-7,4
14,-1,-8,-8,-4,15,-6,3,4
8,12,32,25,6,1,-18,-4,4
-13,1,20,-5,1,-20,51,2,4
-4,-11,-17,-20,-3,1,42,8,4
-40,-14,3,10,-10,-41,-115,-24,4
-10,-7,0,-5,0,20,108,-8,4
5,-3,-13,-11,-6,25,59,-9,4
20,8,0,7,14,10,21,-14,4
11,1,0,-14,-1,7,-18,15,4
5,3,5,-7,-3,-8,-12,-20,4
-10,4,-10,-14,3,-18,19,18,4
-1,5,13,21,2,9,-70,-2,4
22,6,-4,0,0,26,87,-24,4
-1,-9,-60,-34,-7,-18,-20,3,4
-21,-17,26,25,-5,2,96,-7,4
-13,-5,-4,-12,2,11,5,1,4
0,-7,-39,-19,4,-33,-115,17,4
-26,4,26,18,-9,4,-9,4,4
3,5,3,-8,-4,26,31,30,4
24,1,5,9,-9,-25,-50,13,4
4,-2,8,-2,2,28,29,2,4
9,-2,1,-4,6,-20,35,17,4
3,10,3,0,8,9,-30,10,4
-1,8,4,-7,-6,-53,-19,-15,4
17,0,1,-2,-6,5,8,12,4
27,7,4,3,-2,9,5,-1,4
-27,-4,-5,3,-8,-2,-17,-2,4
24,7,11,3,4,10,-68,-26,4
-28,-14,4,-8,2,-22,-12,-21,4
4,-24,-36,-13,-8,-7,-53,7,4
-10,-7,-27,-11,-3,14,3,-12,4
30,22,26,8,5,-44,11,20,4
-4,19,78,-1,4,49,41,11,4
-22,-3,-63,-13,-19,-53,-55,0,4
33,-12,-9,-13,4,-11,22,-41,4
3,-7,-50,6,-11,-7,42,6,4
7,8,30,26,24,30,127,-1,4
-12,-7,18,0,-13,-16,-35,-13,4
-6,11,17,-5,10,28,-62,37,4
-11,-7,8,-3,1,20,1,-8,4
4,-9,-25,-14,-11,-26,-44,-16,4
2,19,33,-1,24,32,28,-3,4
12,9,-7,1,3,-24,-16,-10,4
0,-7,6,-9,-12,-3,-20,11,4
17,-4,-25,-2,0,-4,4,-16,4
-2,-4,10,-6,-5,5,7,13,4
35,18,15,3,1,-6,-8,24,4
-26,-5,-5,-5,8,70,77,-6,4
8,-14,-9,15,6,-27,63,6,4
-17,-20,-10,2,-28,-23,-89,-18,4
-2,-9,7,1,4,-11,46,0,4
-28,6,-16,-20,3,23,49,-24,4
1,13,15,22,6,1,-4,-10,4
-15,9,40,-6,17,26,110,16,4
18,-13,-76,-7,-14,-26,-101,-17,4
4,-2,5,12,-3,-16,18,-31,4
2,-4,-8,-7,-4,2,-39,17,4
24,10,50,8,27,10,21,-1,4
-12,-5,-27,-7,-13,-4,-45,1,4
-8,-9,-20,9,-7,-9,-54,-1,4
-12,-2,-14,-3,-5,-2,-55,-45,4
3,8,7,6,2,21,127,2,4
-1,9,32,-3,0,-33,-10,-2,4
-42,-11,5,-8,12,2,-82,-4,4
-13,-15,-12,-10,-14,-4,-64,15,4
-18,-2,-10,3,-7,-8,38,-5,4
1,3,9,-2,7,9,-52,-12,4
29,11,9,0,1,5,19,11,4
3,2,1,-17,-8,-5,45,0,4
-1,-14,-25,7,-9,-15,-114,13,4
-9,0,10,3,4,6,99,21,4
6,1,-13,-12,1,15,17,5,4
-9,7,10,11,6,1,81,19,4
37,3,0,3,-5,3,-47,-30,4
-10,5,39,-20,5,6,-46,0,4
9,-3,-28,-6,-2,-21,-90,10,4
23,-3,-21,-9,1,16,2,6,4
-31,-15,1,10,-21,-11,127,0,4
-11,-5,7,1,5,-10,-20,2,4
-8,4,13,-3,7,47,50,-30,4
-11,0,-10,-10,-2,7,46,37,4
35,12,7,5,8,-21,-53,-1,4
18,-10,-1,4,-6,-6,40,0,4
-39,-16,2,2,-6,1,34,7,4
-17,4,-3,14,2,-9,13,7,4
-1,4,8,-4,1,13,-15,0,4
4,8,-20,1,3,2,-43,-19,4
16,0,-2,-1,-9,-24,-16,21,4
16,8,38,10,-2,-13,38,-1,4
-12,-7,-13,-24,1,30,100,15,4
7,-7,-29,-1,-5,-16,-45,-3,4
34,3,2,2,4,7,81,-1,4
-19,3,10,-4,-3,-18,-66,-9,4
-1,1,-22,0,2,17,30,8,4
8,0,3,2,4,20,10,-6,4
-2,1,12,0,0,-9,31,-4,4
-2,-6,1,-5,-10,-26,-34,-9,4
21,-7,-20,7,-5,-23,-64,-20,4
-6,16,26,3,5,42,31,14,4
8,-5,-14,7,-9,-48,-81,-6,4
-1,0,-16,-11,-5,1,-3,-36,4
-11,0,-7,-1,3,4,-48,-4,4
-33,-7,5,-1,-1,0,68,1,4
14,0,13,7,-4,6,6,11,4
-14,-6,-9,-10,-3,12,-76,-15,4
13,2,7,-3,3,-26,-55,-6,4
17,1,14,7,0,-14,80,-28,4
-1,4,3,-9,-1,24,56,17,4
-2,-7,-16,-3,-2,-24,-98,-3,4
-13,-8,-26,-1,-11,9,-38,-3,4
-5,2,22,6,6,12,80,1,4
-26,-11,-13,-3,-1,-8,24,-31,4
24,-4,-9,1,-2,-13,-70,17,4
-6,3,-3,2,2,4,5,16,4
-2,-3,1,2,-9,3,50,-5,4
0,3,12,-3,5,20,-14,5,4
4,4,-5,1,0,5,-20,-1,4
14,-3,10,4,7,-18,27,-1,4
4,-5,-6,-2,-5,29,33,-6,4
-33,2,3,-3,-5,-19,-40,46,4
29,4,-5,1,2,15,76,15,4
-1,2,11,-7,8,-4,-15,10,4
6,-2,-2,-3,10,37,53,7,4
-25,-13,-7,0,-13,-63,-22,5,4
-13,-9,0,-2,-10,37,-97,-24,4
-13,10,35,8,11,19,-11,21,4
5,14,-25,-17,-10,-18,-31,-6,4
18,-8,-63,-9,3,7,-12,-26,4
18,4,32,20,-5,-32,18,4,4
-1,-9,-39,-8,-5,18,16,-10,4
-8,-2,10,8,-5,-23,-11,1,4
10,19,39,-3,9,8,-3,-7,4
-3,1,-2,-6,6,-3,106,6,4
6,8,16,1,8,40,-68,4,4
-29,-12,-4,10,-16,-32,49,-5,4
19,-9,-8,2,-1,53,-2,16,4
-14,-4,-10,-7,1,10,-1,-3,4
25,15,16,-2,8,-30,43,7,4
-25,0,-10,-2,-1,-21,-96,-6,4
-10,-11,10,1,-2,40,9,-17,4
-80,-22,-11,-2,1,-62,2,21,4
-37,-14,-1,-1,-11,-1,53,-4,4
24,9,58,7,5,-8,-39,3,4
-10,1,-33,-8,-11,4,24,2,4
26,8,-26,-9,5,29,9,-7,4
26,-2,-37,-6,-7,-24,7,-2,4
-8,0,3,19,5,3,-33,-6,4
19,20,55,-9,3,-24,-58,-31,4
19,-10,-26,-3,-1,21,21,17,4
-3,3,16,4,-6,-15,-95,15,4
-11,-15,-23,-8,-2,11,46,10,4
-3,-1,11,6,7,-6,52,-22,4
13,11,10,-7,6,-12,2,-10,4
-38,-7,0,1,-12,19,49,-9,4
56,17,-3,-5,11,3,-122,25,4
-4,6,14,1,0,-24,16,10,4
15,-6,-20,-3,0,5,-4,-58,4
-4,0,10,16,1,-28,-44,0,4
-31,-19,-45,-19,-22,-3,71,11,4
35,22,85,24,20,3,-19,11,4
7,-26,-92,-23,-43,-31,95,4,4
20,10,12,2,28,26,-32,-22,4
-26,-9,-1,0,-3,-4,31,28,4
-18,-1,15,0,11,42,98,1,4
-10,5,26,0,1,-20,-82,20,4
-5,-1,-5,-5,-12,-12,1,0,4
9,2,-7,2,3,-2,1,-7,4
-27,-9,-17,-7,-9,-10,-61,41,4
-17,5,35,16,11,19,21,3,4
1,-17,-19,-1,-2,-2,45,12,4
1,-4,3,-2,2,30,3,45,4
-11,-7,-28,4,-22,-41,-107,-12,4
29,10,15,1,9,12,9,21,4
-40,-3,5,-1,-1,-47,-89,-5,4
3,0,0,6,0,74,102,21,4
-22,8,55,5,0,-62,-68,-10,4
-4,-4,-65,-23,-16,28,-39,35,4
18,10,-15,-9,35,22,83,-16,4
2,-9,-5,-8,-19,-15,-49,-32,4
6,-12,-3,10,11,95,97,0,4
-7,3,21,-9,6,10,-21,0,4
14,8,25,9,2,5,37,4,4
11,3,-17,6,6,-55,-6,-19,4
1,-2,-29,-14,-8,-16,37,-1,4
3,3,32,26,3,-2,8,1,4
6,-3,-11,-5,-12,25,43,-3,4
5,-2,2,3,-3,-26,-52,21,4
-14,-2,3,14,-4,-1,47,-39,4
-2,2,17,9,16,11,11,10,4
-1,1,-8,11,-12,-18,0,75,4
32,12,25,6,5,4,23,-14,4
1,-10,-36,2,-7,-8,-128,16,4
-2,2,1,10,-2,-2,52,-26,4
10,-2,5,-6,2,-3,45,-13,4
-1,10,7,-10,30,23,-29,-10,4
7,-4,-31,-39,-20,14,0,-15,4
-2,6,17,-13,10,-99,-23,-8,4
-7,-13,8,2,-20,70,62,-1,4
3,11,53,27,15,13,23,-16,4
12,2,-17,-32,8,-7,-43,7,4
9,-4,-26,-15,-5,27,4,6,4
6,0,-30,11,0,-30,-19,-2,4
18,14,54,-28,-15,-28,-52,-9,4
-26,-19,-75,10,-12,-4,36,-43,4
7,-19,-9,36,-4,1,-14,31,4
-43,-23,-15,-25,-12,-28,-65,-36,4
-24,-11,-6,15,-12,1,65,40,4
36,27,69,7,13,-1,75,-33,4
19,8,5,-10,1,6,14,-6,4
-1,0,-7,-13,-7,29,-92,-19,4
4,-1,-10,24,-1,17,30,9,4
8,10,3,-12,8,-21,4,18,4
-32,-4,-5,-3,4,-15,-30,-5,4
22,9,25,7,14,35,27,14,4
-30,-8,-26,-36,-19,-33,28,-10,4
0,-11,-17,16,9,57,-35,9,4
2,11,56,36,-14,-55,53,-4,4
-5,-5,-19,-54,-11,-48,-38,11,4
4,-9,-48,35,9,10,-66,-25,4
-5,-3,26,4,-13,-7,-1,8,4
4,-2,-8,-2,-3,26,-20,12,4
-37,13,25,-15,6,-19,116,0,4
-18,-21,-52,-12,-11,-14,-121,19,4
18,-15,-10,8,5,4,47,44,4
-41,-8,5,-7,1,10,-42,9,4
12,5,28,20,-8,-56,-99,-10,4
-2,7,11,16,20,27,101,2,4
-2,4,0,-14,-16,-20,-102,10,4
30,6,10,-15,-6,25,20,-9,4
30,1,-12,7,6,20,-20,20,4
-25,4,12,-23,-14,-40,-48,-2,4
35,17,18,71,71,2,55,-6,4
-39,-25,-32,-63,-41,60,102,-8,4
14,1,-5,26,-18,-15,-56,2,4
10,3,17,-8,3,-11,-99,-26,4
-17,-8,-18,-27,-32,-9,94,0,4
6,8,-2,18,42,30,32,0,4
0,14,74,39,28,14,26,-6,4
4,-1,-40,-40,-12,0,-7,7,4
-21,-10,-34,-12,-34,-56,-105,-3,4
-24,-7,-30,-8,-6,4,-8,35,4
46,-4,7,5,-10,12,34,-15,4
-11,7,28,43,25,2,-18,6,4
15,-21,-70,-67,-18,-5,11,66,4
-19,6,25,24,5,-6,-77,-41,4
20,17,19,32,20,1,11,16,4
-9,-12,0,-51,-36,-15,59,-21,4
17,22,41,41,33,58,117,-19,4
-9,-5,7,-28,-18,-41,-1,4,4
-17,-18,-44,-22,-14,34,56,-7,4
21,5,4,17,8,-31,-92,-17,4
-18,-2,3,-5,-2,14,57,1,4
26,14,13,8,22,-3,-82,-14,4
-20,-2,-10,-10,-8,21,14,-15,4
9,1,10,1,-13,-46,26,22,4
-14,-1,10,2,0,-29,-83,-7,4
16,6,1,3,5,8,36,-5,4
-3,5,30,39,5,-1,17,1,4
-16,-22,-87,-75,-5,31,6,-9,4
-28,-9,-2,47,-13,-27,-70,-2,4
-8,-11,7,25,10,10,-17,-32,4
3,-5,-18,-46,-12,-10,-57,-8,4
12,0,12,38,6,19,-30,10,4
-2,8,26,-14,9,17,-40,-6,4
-8,-5,-28,-8,-13,-14,67,23,4
10,7,14,3,17,63,-12,-17,4
9,9,17,12,7,-44,49,3,4
-18,-16,-19,-26,-19,-23,-61,-7,4
9,5,19,28,16,48,26,-6,4
-1,-4,-20,-25,-10,-35,-14,-1,4
-1,6,19,4,17,58,9,-5,4
3,11,33,1,1,-4,10,-10,4
14,-7,-45,-4,-19,-32,-38,14,4
6,2,-2,10,3,25,48,-5,4
-2,15,54,-4,-1,-16,-55,14,4
18,3,36,60,19,15,118,-63,4
-5,-29,-83,-66,-21,0,42,1,4
-27,-26,-46,-48,-37,-43,-128,19,4
23,-6,-14,77,12,26,127,7,4
-18,-5,23,-12,-7,-40,-55,-11,4
-5,14,55,-8,7,-9,-106,-5,4
-3,4,3,15,5,-12,75,-5,4
19,16,6,-25,-4,9,-4,-26,4
16,12,-4,-22,11,-3,-24,13,4
-8,-3,-8,8,-9,-10,-10,-9,4
9,-6,3,-2,-12,5,-13,7,4
-37,-15,-6,-15,6,12,-36,1,4
-12,-10,-32,-18,-2,29,50,16,4
-8,-2,23,15,-12,-28,-23,-1,4
0,5,2,-2,29,0,-11,12,4
11,11,25,7,9,15,45,-7,4
26,-2,-46,-15,-16,4,-84,36,4
17,22,31,12,-1,2,111,-51,4
-31,-15,-8,4,-2,15,19,72,4
-13,-14,-30,-18,-6,-12,14,2,4
10,-3,46,47,5,7,82,75,4
5,11,33,-33,18,11,-100,-10,4
-10,-25,-103,-23,-17,-18,13,-47,4
16,-2,-18,18,-2,-4,-49,8,4
1,0,-15,7,3,-17,37,-13,4
-4,-2,26,1,-3,4,13,6,4
-4,15,42,-5,9,6,55,-9,4
-4,-7,-8,-5,-20,-9,-59,6,4
21,12,5,-12,8,-42,-112,-38,4
-20,-15,-12,19,7,29,113,30,4
-2,-3,4,-16,-21,15,-101,-14,4
-28,-10,-9,-3,-6,6,3,-2,4
-15,-9,-2,-16,1,8,-12,0,4
10,3,-5,16,15,-6,-17,16,4
8,11,23,15,16,1,3,12,4
29,20,50,-3,12,4,92,-11,4
-18,-16,-72,-47,-23,29,56,25,4
-3,-23,-39,-28,-21,-49,-105,-8,4
9,20,94,106,22,-17,-30,24,4
-12,13,13,-66,4,43,91,13,4
14,-12,-47,37,-16,-15,27,1,4
-8,-24,-94,2,-34,-13,19,16,4
4,-17,-21,33,-3,17,84,-12,4
0,13,60,51,24,-23,-115,-25,4
-19,5,50,-12,-6,0,-36,-1,4
6,5,23,-15,14,-11,26,-2,4
-3,9,4,-14,0,49,127,-12,4
26,0,-26,2,5,-35,-100,8,4
-37,-5,-3,-30,-5,-47,-40,-31,4
-4,-2,18,26,3,22,-54,29,4
3,0,-13,-37,-12,-32,-53,-11,4
-6,-12,-28,-19,-10,21,39,-7,4
12,-6,-9,-3,-8,11,5,-1,4
14,23,31,17,18,1,-39,0,4
12,-2,-15,-21,-5,-41,53,36,4
2,-6,-24,-7,-9,-11,36,-30,4
15,6,18,15,9,10,95,-15,4
22,9,23,-4,1,5,4,-51,4
1,-2,27,20,-2,1,27,19,4
-2,-7,-46,-19,-8,12,100,21,4
15,37,121,28,17,17,-38,-12,4
-18,-40,-101,-99,-29,-11,21,16,4
2,-15,-19,35,-4,1,57,-26,4
-21,-15,24,-17,-24,-4,-18,-42,4
12,5,19,16,-5,-15,49,8,4
-6,-3,5,82,20,63,-18,4,4
5,28,39,-58,62,-30,-111,-11,4
-22,-20,-27,-58,-7,8,-46,21,4
4,-3,-23,-16,19,34,70,-63,4
34,22,25,8,-26,-14,24,-12,4
-8,1,-39,-37,-26,0,-56,-65,4
6,-3,7,0,0,-35,-15,-34,4
-41,-13,-23,-122,-18,-23,-69,16,4
9,3,12,-98,10,11,8,-1,4
-8,-3,3,-40,-4,4,5,-4,4
-4,7,-2,-73,-2,-17,8,32,4
9,-5,-22,-15,-8,-3,-56,-9,4
-10,7,20,120,20,7,59,10,4
-2,1,15,91,-6,-7,36,11,4
-2,-1,10,103,-12,-14,-67,-8,4
17,1,-57,58,8,1,-103,46,4
-42,-8,10,4,-2,-44,-18,-35,4
-5,-13,-18,-15,-33,22,21,30,4
-5,-14,-12,12,0,-26,-61,-20,4
-13,2,31,3,9,32,23,46,4
11,9,1,-33,-19,-30,-24,16,4
-4,1,-3,47,30,14,30,16,4
1,3,9,45,17,21,35,-23,4
7,-5,5,28,6,7,23,-12,4
30,13,35,28,-1,5,14,13,4
-5,51,94,82,18,19,13,-10,4
26,-16,-56,-75,-20,5,20,81,4
3,-23,-54,-65,-11,-22,-32,3,4
-60,-49,-112,-97,-21,11,4,1,4
2,-26,-62,-96,-15,-29,-45,0,4
12,17,35,93,18,8,-14,20,4
10,26,63,84,13,54,90,-26,4
1,23,79,26,15,-16,-60,-19,4
7,-3,-12,-68,-7,4,-63,-13,4
-11,7,11,-32,-5,27,66,-30,4
-15,-16,-28,-15,-10,-10,116,26,4
3,14,24,53,13,0,5,11,4
-24,-11,-18,11,7,-14,-94,-2,4
-6,1,-3,23,3,39,25,5,4
-5,7,15,31,-12,-66,-27,42,4
47,9,-3,0,10,9,31,-27,4
18,-8,-25,-15,-10,-30,-4,-42,4
-4,-6,6,25,-8,2,-27,7,4
-26,-3,-5,-8,0,22,-16,1,4
-18,-2,45,77,13,19,42,-15,4
-54,-16,-25,-84,-34,-43,-84,2,4
24,-6,-68,-63,21,4,74,16,4
10,-2,1,29,-19,4,38,-27,4
29,11,2,3,21,-5,-42,-2,4
0,7,45,55,6,13,-3,13,4
6,14,37,27,-4,-5,45,-6,4
18,12,73,64,13,-2,-41,-12,4
-37,-37,-89,-97,-30,-6,28,46,4
19,-3,18,65,-3,-3,-33,13,4
-12,1,8,22,5,-1,-76,12,4
7,-2,-8,-3,-4,13,14,-9,4
-18,10,25,18,14,-38,-18,27,4
33,3,-10,-27,0,-10,-24,10,4
-37,-12,-3,3,0,76,107,-4,4
-11,-9,-7,-18,-27,-31,-46,-9,4
11,3,-1,-24,18,-3,-69,6,4
10,-3,-31,-19,-6,44,127,21,4
-20,8,29,31,5,-68,-77,1,4
-4,-7,-8,8,6,32,-82,-2,4
-7,-9,-17,-49,-28,0,98,21,4
-5,0,1,4,6,-7,-99,-37,4
-7,6,75,64,0,-1,26,-4,4
3,8,2,-58,8,-17,-23,15,4
3,-21,-56,-45,-22,-1,-26,17,4
8,4,26,103,13,8,41,-42,4
8,2,-13,-4,-11,-21,-19,18,4
-11,-6,-24,-39,-1,-4,1,18,4
17,16,62,65,12,16,17,-36,4
-17,-4,-10,-50,-10,47,48,-2,4
-5,2,14,17,4,-70,-50,-3,4
-11,-10,-2,18,7,67,-42,-44,4
-19,-2,-3,-9,1,34,54,-6,4
6,1,-12,-23,19,-43,-38,23,4
21,5,-7,-6,-12,-12,57,-22,4
-1,-1,-20,-17,1,47,121,7,4
23,2,-6,-14,-10,10,-82,4,4
-2,14,22,27,24,50,82,1,4
-6,-8,-22,-44,-5,-28,-57,-25,4
-29,-11,-15,-10,-8,-15,80,24,4
51,16,56,86,-2,-5,-10,-3,4
8,9,5,50,-7,-7,83,-19,4
21,5,-35,-71,1,-12,-66,10,4
6,0,-4,28,-1,-12,-10,-8,4
-6,15,90,85,13,0,0,-28,4
-37,-62,-88,-98,-37,-31,-43,35,4
-12,-4,34,79,-12,21,50,-5,4
34,15,20,41,34,-8,-52,-35,4
-16,15,37,28,17,8,-22,-7,4
-14,6,16,-7,-8,-16,-9,25,4
32,-1,-23,-41,-4,23,-44,-53,4
-16,-6,-4,-13,-1,-30,62,24,4
-1,11,-13,-14,4,-24,26,-1,4
8,-3,-6,-18,-3,76,115,9,4
-15,-20,-28,-13,-9,3,8,15,4
5,14,26,20,5,2,35,-3,4
3,-9,-32,-29,-3,-9,46,-9,4
-36,4,11,14,6,-10,28,-23,4
19,-2,-8,-19,2,18,7,14,4
21,12,34,35,0,-4,-79,-17,4
0,-6,-56,-104,-20,-38,-41,3,4
-1,7,17,16,1,-2,-6,-4,4
-14,-4,9,0,11,42,36,2,4
-7,-11,-39,-30,-24,-57,-81,-10,4
-36,-6,-9,61,5,42,58,37,4
1,-3,19,4,-10,-29,-49,-5,4
-2,-1,-21,-43,14,-16,-31,16,4
14,-2,-15,-32,-13,12,-26,23,4
-1,-2,13,51,2,12,32,-16,4
9,-3,-4,-2,-14,-38,19,11,4
-8,9,34,56,12,26,37,3,4
-8,-4,2,-1,-8,4,70,0,4
13,-3,-11,-31,0,4,-67,3,4
18,7,10,8,6,11,-68,-3,4
-12,-7,-11,-15,-3,8,33,2,4
-5,-2,-9,-9,-3,-20,80,-8,4
-1,-11,-6,-13,-9,-14,40,-31,4
-1,4,-2,2,6,12,75,32,4
-7,4,2,10,-8,-17,-11,2,4
6,-7,-9,-10,4,24,96,0,4
8,7,7,21,-6,-15,-75,-15,4
-3,6,73,101,13,35,15,2,4
-19,-14,-35,-94,-17,-71,-52,-5,4
-45,-29,-74,-92,-5,21,41,13,4
25,4,-17,-7,-3,10,80,24,4
32,6,-9,-1,-9,-39,-114,-4,4
27,28,62,100,30,55,-43,2,4
-16,3,28,10,-5,-18,-7,12,4
-72,-14,-12,-27,-25,0,-59,15,4
15,9,-9,-24,3,-23,12,-4,4
25,3,6,14,-3,10,-25,-29,4
29,17,8,8,9,-23,-68,-20,4
-10,-11,1,-21,-10,-8,-3,22,4
-40,-24,-13,-20,8,73,49,-3,4
-19,-9,-12,-13,-22,-128,-84,6,4
-38,-12,-2,7,-16,52,0,-2,4
15,15,26,28,19,20,68,-3,4
23,16,9,5,-7,-12,-43,4,4
17,-12,-60,-90,-5,30,51,35,4
21,2,9,19,3,-6,-28,-4,4
32,12,44,63,4,1,-26,-23,4
-11,-12,-54,-79,-7,-28,-28,3,4
9,8,5,35,3,20,34,-12,4
13,-3,6,11,2,-9,-11,3,4
-24,-14,6,6,0,-1,-82,-28,4
-18,-1,3,19,0,-9,25,0,4
-48,-1,4,-1,1,15,47,10,4
1,5,3,0,-2,-30,-91,-53,4
-25,-5,-7,-24,-6,-16,127,-24,4
22,5,-9,-24,2,-15,-48,-10,4
8,-8,-14,-9,-9,12,1,-4,4
-20,1,24,72,30,75,99,11,4
-3,-9,-23,-58,-21,-68,-74,3,4
-23,-1,49,75,-7,11,45,-8,4
32,-10,-67,-59,-14,29,94,-13,4
19,1,-8,-15,0,12,-13,23,4
-4,-1,-14,-15,11,-24,12,18,4
20,3,-2,3,-2,-14,-7,3,4
5,24,80,96,8,10,-21,6,4
74,13,-10,-36,-7,-8,-51,-32,4
-29,-16,-42,-23,1,27,2,4,4
-53,-19,-5,-21,-3,-7,-22,-28,4
-18,-4,13,24,1,12,10,11,4
8,1,-5,-3,-7,-42,-28,30,4
-7,9,11,5,15,58,17,0,4
-3,-2,-9,11,8,-27,-11,-3,4
6,-1,9,9,-4,-13,-34,8,4
-14,1,-4,-22,-5,7,101,21,4
17,6,8,19,-4,-8,-40,-16,4
21,6,20,41,5,1,-35,-3,4
-17,-5,-10,-51,-2,18,82,3,4
9,-4,-23,-3,-6,-33,-57,21,4
18,8,29,11,7,12,0,7,4
17,12,14,-15,-2,6,12,15,4
-10,-19,-57,-8,-9,-36,-52,-10,4
-28,-19,-41,-46,11,38,-29,-1,4
1,-1,8,-3,-21,-27,-40,4,4
-20,-7,3,46,33,-2,1,22,4
28,16,51,57,3,34,63,-17,4
7,-2,14,15,10,-18,0,-2,4
-18,2,-18,-14,-1,62,13,19,4
56,12,-3,-23,-18,-98,-58,-15,4
19,-2,-4,0,10,7,-7,-42,4
-5,1,7,15,4,15,-27,12,4
23,4,6,9,8,19,114,16,4
-28,-12,-21,-17,-10,21,25,-3,4
-14,-3,-2,-15,0,-24,-111,9,4
7,12,33,50,-1,-9,20,-35,4
14,-4,-7,20,4,-16,-51,0,4
-26,-7,-24,-46,-8,21,113,9,4
-7,-7,0,37,-7,-18,-33,12,4
-14,-5,-10,-40,-6,30,92,5,4
3,4,30,62,-4,-3,-4,-1,4
8,-8,-54,-84,3,20,-47,-3,4
-19,-4,16,14,4,35,93,3,4
-1,2,9,5,8,-35,-89,-4,4
5,1,-4,-12,9,21,-25,-9,4
-15,7,19,15,-14,-34,-13,39,4
17,27,106,112,20,-6,4,-9,4
-9,-19,-94,-84,-19,10,-35,47,4
15,-15,-56,-61,-6,-9,12,22,4
-12,-11,-14,15,-11,6,-10,3,4
-24,-12,-7,-16,-8,4,14,8,4
-14,2,55,54,3,-35,-24,-20,4
22,9,18,15,3,-10,-47,5,4
20,5,-7,-33,1,36,106,-2,4
1,0,-15,-29,-18,-25,48,-20,4
-9,2,14,15,-4,61,14,-25,4
11,-8,-20,-28,-6,-46,-3,-12,4
8,1,10,17,3,-9,-38,-24,4
-5,1,-17,-17,9,0,-37,8,4
-18,-3,3,6,-10,-28,86,0,4
-17,9,54,96,16,29,-39,-24,4
3,-8,-39,-36,-10,-12,-1,3,4
-2,-10,-41,-71,-12,0,-68,5,4
38,5,-11,-39,7,-45,-51,-26,4
-10,9,29,47,0,16,36,15,4
7,0,14,55,5,20,-12,-13,4
-17,-1,27,38,0,-24,-29,30,4
2,2,-11,47,3,28,4,-6,4
-1,-17,-60,-77,-8,-13,-10,42,4
25,4,21,23,5,26,-9,3,4
-9,-9,-21,-20,3,20,61,3,4
-3,3,43,42,-20,-37,-118,-8,4
-24,-6,-2,-18,-5,-36,21,-18,4
-1,1,-9,-12,-12,6,-47,2,4
11,6,-1,-14,17,51,70,3,4
3,4,8,-6,-5,-73,0,28,4
-4,-1,-15,-22,-2,8,-82,-13,4
-6,-5,4,-7,-4,6,96,-11,4
11,6,12,35,-10,-41,-59,0,4
11,14,38,47,14,59,18,2,4
-15,-6,-33,-47,0,-6,11,-11,4
11,-4,18,61,-7,21,0,-22,4
17,1,-25,-16,4,4,-22,10,4
-12,-5,1,27,5,-9,-18,4,4
-24,-5,14,50,-1,3,22,-6,4
-16,-15,-55,-79,4,-4,-11,22,4
13,-2,9,36,-4,-7,-67,-30,4
-19,-2,26,47,-2,-19,60,-6,4
25,13,39,29,3,21,-14,39,4
5,6,9,-1,-4,-4,-8,-4,4
-26,-3,-16,-18,5,35,9,37,4
25,-1,1,-13,9,-1,3,-40,4
-6,-4,-12,-10,-10,-67,-52,-1,4
-13,-1,-8,-15,2,23,37,-3,4
13,4,9,5,0,-25,-22,-4,4
-1,-3,-13,-5,-4,40,33,17,4
1,-1,-12,-11,1,2,23,-7,4
8,8,20,19,4,-19,-20,-4,4
4,-1,-13,-40,2,23,18,-6,4
-9,-4,-13,-15,-13,-18,-34,5,4
22,2,14,30,2,9,28,-19,4
-13,4,17,17,7,1,3,8,4
-13,-3,-1,19,-14,-2,-7,-1,4
-6,-6,-46,-66,5,-4,-25,14,4
6,1,-13,-53,-5,23,99,3,4
-5,-1,4,26,-9,-16,116,-7,4
-3,-2,9,5,-13,-61,-53,-47,4
10,-4,8,25,-10,-6,94,-9,4
-32,3,9,15,14,61,20,-17,4
18,0,5,6,12,-53,90,7,4
-2,-5,-13,-13,-6,-1,-86,-30,4
23,7,8,4,-4,12,40,44,4
-7,-2,6,11,1,5,-55,8,4
-10,4,-15,-22,8,33,-15,-6,4
-8,-2,3,11,-5,-27,93,21,4
-1,12,44,77,3,25,30,-45,4
37,1,-55,-83,-5,-28,30,4,4
-20,-12,-15,-16,-3,41,-79,16,4
-24,-7,19,54,3,-6,65,22,4
11,9,47,77,15,56,-27,-4,4
-49,-14,-56,-63,-17,-69,-60,10,4
17,-10,-12,11,0,26,50,-4,4
5,-4,-21,-7,4,34,-32,-4,4
-15,4,26,40,-4,-38,-30,14,4
10,13,56,41,6,22,-7,-43,4
10,1,-30,-42,3,-2,-68,22,4
22,1,-7,-16,-6,-34,-18,-60,4
-35,-8,-14,-25,5,21,-57,58,4
1,-2,4,11,-17,-33,43,7,4
-14,-2,7,8,-3,11,-26,-7,4
-15,3,11,0,0,41,115,29,4
-4,-1,-26,-34,9,-5,-128,-3,4
-8,-8,-9,-1,-10,-5,114,-5,4
16,7,28,36,4,-6,1,-27,4
-11,3,21,51,2,-19,-53,22,4
-6,-11,-49,-102,-5,8,88,-5,4
-28,-10,3,0,8,26,2,15,4
-1,-4,-3,19,-2,-13,-9,1,4
30,10,1,-5,1,1,25,7,4
4,3,-11,-20,-1,-20,-80,-27,4
35,14,39,58,6,-5,-5,-3,4
-17,-2,-8,-20,-6,18,12,10,4
26,-2,-1,13,-3,3,-35,-16,4
-11,-8,-14,-16,12,-27,40,6,4
-37,-6,-12,-11,-7,33,-105,7,4
19,-8,5,18,-2,-45,41,3,4
-24,2,16,27,6,16,64,2,4
14,0,-7,-50,-6,10,91,2,4
20,1,-18,-1,2,-14,-71,-37,4
-17,9,15,19,9,8,-22,-21,4
-7,-7,-10,-24,-12,1,16,-2,4
13,4,21,67,-10,-10,-10,-28,4
11,-10,-30,-69,2,-2,-30,-26,4
6,7,17,6,-4,6,6,8,4
13,3,3,1,11,-29,-52,19,4
-8,-4,-21,1,-6,8,-68,-3,4
16,4,16,24,-2,6,57,15,4
9,-7,-11,-18,-4,6,16,-24,4
-3,2,-3,-33,-3,-9,-13,19,4
-11,4,20,25,4,9,-51,6,4
18,-7,-2,16,1,-7,101,9,4
-5,-6,-6,-10,-14,-24,-42,14,4
-20,-17,-17,-19,8,50,23,3,4
-14,-4,7,-3,-7,-36,127,12,4
-10,-5,0,24,-14,-6,-72,-4,4
3,9,6,0,8,17,77,0,4
9,4,11,22,-10,-7,9,-10,4
13,-2,-22,-37,5,29,23,15,4
-6,8,21,25,13,-37,-96,2,4
-11,-8,-18,-27,-8,-37,-52,-7,4
-8,8,21,52,2,1,-14,1,4
-2,-7,-33,-69,-9,8,-4,6,4
4,2,11,60,5,12,17,4,4
-39,-11,-47,-57,-5,0,-37,-14,4
-21,-12,-21,-16,-1,10,54,4,4
-10,-3,36,85,1,-42,-96,-17,4
0,3,3,3,1,18,127,18,4
-10,9,38,49,0,-16,30,1,4
11,5,-6,-24,2,12,-108,5,4
19,4,-16,-30,-7,-12,41,2,4
-14,-5,9,9,-3,2,34,-6,4
10,0,-2,-9,11,45,-10,21,4
0,-4,-15,-32,-11,-23,-32,-8,4
2,-5,-2,3,-9,-68,-23,5,4
0,2,-7,-18,2,37,9,20,4
-18,-6,-1,15,-10,6,15,2,4
9,1,-3,-6,9,6,-71,9,4
-1,9,6,19,8,40,20,-2,4
28,8,27,30,-6,-48,-26,-3,4
-18,-12,-29,-44,-2,9,-7,-14,4
-29,-14,-27,-56,-5,-12,-32,13,4
-9,-9,-17,-35,-3,5,75,0,4
6,-1,4,17,-3,8,0,-15,4
24,11,28,18,6,3,-13,-6,4
15,12,17,27,3,-15,91,-17,4
-3,-3,-2,-2,1,23,94,-13,4
17,1,-11,-18,-6,3,-30,3,4
-7,4,21,34,0,-19,-111,1,4
-12,-4,-9,-11,-4,15,36,-5,4
19,-10,-7,-8,-10,-8,-98,29,4
-16,-1,-1,7,10,1,5,10,4
0,3,7,3,-12,-16,7,7,4
1,3,0,-7,3,-24,-48,7,4
-4,-2,4,26,12,5,-67,-5,4
9,2,8,-11,7,2,90,0,4
14,15,27,-30,-20,16,-59,10,4
-3,-19,-62,-47,22,-23,-3,24,4
-4,-6,4,46,-12,6,83,-16,4
6,2,21,48,8,18,10,-31,4
-5,4,-2,-24,11,0,-28,6,4
12,1,0,-6,-18,-10,-28,-18,4
6,2,-2,-6,-1,-6,-29,14,4
-11,-17,-26,-24,2,7,11,17,4
-8,-8,13,52,-1,-10,64,3,4
22,7,28,32,0,5,37,0,4
4,1,-34,-50,-4,9,10,-4,4
-13,2,8,14,-7,-2,-68,13,4
6,-6,-11,21,7,-16,-14,6,4
3,3,2,-3,-2,9,37,1,4
-6,6,20,9,-2,-9,23,7,4
6,3,-10,-30,-7,-3,-73,-11,4
16,11,26,33,12,9,3,-2,4
-13,-9,-27,-26,-11,12,17,-12,4
-5,-2,-1,-40,-2,-20,74,-3,4
-5,-6,-12,-14,-5,8,56,1,4
-3,4,21,28,3,4,-1,-4,4
13,3,7,60,-7,-20,-29,1,4
16,4,-4,-21,15,35,52,-1,4
-20,-8,-20,-34,-5,-24,-76,-4,4
12,-6,-1,13,1,-23,-29,-26,4
-11,0,20,17,5,3,-10,-16,4
-14,-4,1,18,1,10,-44,-7,4
5,-3,0,11,-2,4,70,5,4
-22,-6,-18,-26,-7,11,-44,22,4
5,4,2,-10,-2,-4,26,-16,4
16,7,6,8,-2,-16,-61,-32,4
6,-2,4,0,-1,-8,-57,-30,4
-1,-10,-18,-13,-1,3,68,16,4
-3,2,7,2,-2,5,-33,8,4
-9,4,-4,-15,10,0,13,8,4
-12,-2,1,0,-16,-12,35,8,4
9,-1,-13,-23,1,0,16,-3,4
6,5,11,31,3,13,-41,2,4
-4,-1,10,-19,-8,-24,-34,-2,4
0,-5,-28,-52,5,25,58,26,4
17,-2,-24,-1,7,14,-17,-20,4
-9,8,31,60,0,3,79,-4,4
-12,-6,-1,-21,-7,-10,11,27,4
-9,-9,-3,-7,-16,-37,55,10,4
0,6,30,43,-4,-1,44,1,4
-11,-12,-40,-57,5,33,44,33,4
23,16,41,87,-2,1,-7,-21,4
-11,-4,-21,-71,0,-3,-57,12,4
11,1,-29,-30,0,5,19,-9,4
30,6,0,-39,-10,-18,-15,6,4
-33,-6,8,32,2,6,8,10,4
3,4,16,45,9,43,43,-34,4
-7,-5,0,-1,0,-53,-86,13,4
2,-5,-1,-16,-5,17,6,8,4
-10,2,-9,-10,5,-18,-127,4,4
3,6,6,15,-5,-32,68,-11,4
-10,-6,-8,-13,-12,23,79,5,4
18,-1,-3,-4,-1,-12,-36,-38,4
10,-4,-5,0,-7,20,-5,7,4
-10,4,12,38,16,4,-70,-4,4
2,0,1,-35,-10,-27,9,-18,4
-13,-4,-4,-31,-6,-4,-11,12,4
1,1,7,19,4,18,52,-9,4
4,0,1,15,-4,-37,1,9,4
-1,0,15,8,3,17,87,8,4
-19,-12,-31,1,-1,24,-9,-5,4
10,-9,-50,-107,-11,-25,-42,2,4
8,1,11,32,-3,21,-8,27,4
-1,-2,9,26,-3,4,60,0,4
-17,6,23,41,3,-21,-63,23,4
-5,1,10,32,0,10,83,10,4
8,1,-6,-17,7,7,-2,14,4
13,-2,-5,0,0,-5,-60,-10,4
-3,0,7,-3,2,25,12,-1,4
1,-4,-9,-2,-11,-28,8,17,4
12,10,8,-5,16,36,-25,-3,4
-25,-2,-8,-8,-14,-29,50,23,4
12,0,0,-2,2,19,21,-32,4
4,-1,0,8,2,10,-63,-26,4
3,2,16,26,-2,11,1,-9,4
6,9,20,45,8,-10,-40,-9,4
1,-6,-44,-65,-7,-18,8,4,4
14,8,32,53,0,13,16,-5,4
-14,-18,-68,-103,-7,-12,-24,-11,4
-17,-8,-15,38,4,6,9,4,4
-8,2,16,1,0,1,37,-2,4
-12,-8,1,23,4,0,12,6,4
-1,-1,9,8,-4,-6,-38,9,4
-4,5,5,-14,4,22,30,-4,4
8,1,7,18,-3,-16,-3,-26,4
6,3,-8,-22,0,-7,-71,5,4
6,1,9,11,-3,-18,93,-1,4
-11,-8,-16,-24,-7,-15,16,0,4
-9,-1,13,17,10,-3,-5,10,4
-3,-2,-6,-9,-5,11,-69,-3,4
-6,0,2,6,-1,-13,-63,-7,4
-3,-3,-3,-3,-2,36,-34,-4,4
-8,-3,-2,-7,-4,-22,22,18,4
-3,-2,-5,-7,-4,-5,-2,-7,4
6,4,2,10,1,3,-14,9,4
14,2,-4,-17,1,45,76,3,4
-7,-1,5,9,5,-59,-16,-2,4
2,-1,5,26,0,12,-7,1,4
-11,-1,-3,-26,1,1,-8,-1,4
16,1,6,16,1,5,23,-3,4
-5,-2,-10,30,-3,-10,-55,14,4
2,-4,-37,-67,-9,-6,8,5,4
-4,1,17,38,-1,-7,38,-6,4
9,-3,-6,-16,3,-3,11,2,4
7,4,7,0,3,28,82,-8,4
-19,0,12,31,-6,-7,-17,-2,4
5,-1,-6,-6,-1,12,-23,5,4
-16,-5,1,3,-6,-22,-39,-9,4
11,2,4,0,-8,3,-17,2,4
-17,-3,-1,-9,3,19,75,-4,4
-12,0,2,6,3,-28,6,-7,4
11,3,2,-2,7,-15,-18,-3,4
14,4,3,-8,-7,33,12,2,4
6,-2,-3,-6,1,-16,12,-1,4
-4,4,24,29,-2,8,-8,-13,4
0,-2,-14,-25,-1,-16,-37,5,4
-12,-4,-2,-30,-4,-16,13,-13,4
10,8,-6,-2,3,13,-23,-3,4
0,-10,-11,5,-7,4,69,4,4
14,5,6,-3,-3,-7,103,27,4
6,-2,2,7,1,7,-48,-23,4
3,-2,-1,-5,-2,3,18,2,4
-11,-3,9,26,4,7,82,8,4
-7,-7,-13,-26,1,13,-34,-5,4
21,2,-4,14,1,-9,3,-13,4
-12,0,1,1,-1,-14,-51,-7,4
10,5,0,1,1,41,10,-3,4
-13,-4,3,8,-9,-63,-40,-7,4
10,9,19,13,11,17,60,10,4
13,-2,-8,-22,-10,-3,74,11,4
11,-3,-20,-24,5,10,-58,8,4
-9,-1,1,11,4,-5,-24,8,4
-21,-6,-5,-10,-5,0,-32,6,4
2,-6,4,13,-7,-14,46,8,4
-9,14,52,86,15,20,-67,3,4
12,-8,-71,-97,-10,6,6,14,4
-8,0,1,9,1,-21,29,11,4
8,-5,6,-10,13,46,5,-22,4
-1,-11,-23,-6,-10,-55,-88,6,4
-38,-5,25,20,7,23,-44,-18,4
-2,2,0,8,-4,4,18,2,4
5,7,0,-2,0,-6,6,0,4
18,5,-3,-26,-1,-5,-16,-3,4
9,8,17,33,0,10,38,3,4
9,0,-6,-13,-3,-9,-78,0,4
-24,-4,13,21,3,16,95,31,4
0,-7,-9,-11,-8,-16,-48,2,4
5,1,-2,0,2,-1,58,17,4
2,2,4,10,4,23,44,10,4
3,0,0,5,5,-37,-52,-6,4
17,3,-8,-19,-4,26,71,-8,4
-19,-2,14,19,-3,-2,-87,-12,4
9,2,-11,-11,-1,-20,59,7,4
-14,-2,-3,5,-8,-5,-96,-6,4
-1,-4,-11,-24,4,11,41,9,4
0,3,12,27,-3,28,-52,-13,4
-12,-7,-23,-53,6,-44,11,-3,4
1,-1,-1,29,-3,30,70,-8,4
-8,-2,2,-9,-6,-17,5,-5,4
9,4,13,47,6,24,11,-3,4
-3,-5,-19,-51,-9,-30,-70,17,4
-25,-3,-8,-26,-1,-2,70,-8,4
-6,0,11,12,2,3,26,-3,4
-19,-7,0,3,-5,-12,-32,-24,4
-10,3,12,22,-1,1,20,-11,4
16,-4,1,-4,1,0,-58,-10,4
-27,0,-4,-9,-6,-1,-29,0,4
31,2,-4,-10,1,-5,-57,-15,4
1,1,0,12,-2,22,100,5,4
1,-3,4,6,3,-1,-24,-2,4
-12,-1,-3,3,-3,-2,49,-6,4
5,2,0,-20,-3,-16,14,9,4
2,0,13,9,-1,38,-12,-1,4
10,5,-1,25,3,-15,14,1,4
5,-7,-29,-82,-4,21,15,1,4
-6,-4,-6,9,-5,-28,20,1,4
-10,-3,22,39,3,7,-35,-14,4
-4,-1,-2,-1,-5,-5,3,3,4
13,4,1,16,0,-17,-33,-16,4
6,2,5,2,4,11,34,9,4
-14,-3,16,29,6,-11,-80,-11,4
2,-3,-27,-57,-16,34,61,4,4
-28,0,1,21,12,2,-5,-23,4
-2,-8,-9,-31,-14,-12,-8,18,4
-5,-1,-1,21,5,16,25,-33,4
22,4,6,5,1,-19,-10,10,4
12,2,-3,-11,-6,6,39,22,4
-8,3,8,20,6,-3,-3,-9,4
-10,0,5,-12,-5,14,20,4,4
-4,-2,-6,-3,2,-11,-89,-1,4
2,-3,0,0,-8,-20,50,6,4
11,5,23,76,-1,-7,-67,-6,4
10,-13,-74,-102,-5,-6,54,20,4
-4,-2,3,30,-6,3,-24,-8,4
2,1,8,20,3,6,-8,1,4
3,2,10,15,13,0,23,-8,4
13,7,13,23,-1,11,5,1,4
16,1,4,-12,5,-1,5,-2,4
-20,-10,-12,-5,-9,-29,-38,17,4
-13,-6,-8,-25,3,33,25,-16,4
-4,-9,-3,-1,-6,-16,19,25,4
12,0,1,-1,7,4,-10,3,4
8,3,10,14,-9,-26,29,17,4
3,2,-14,-30,3,-1,42,3,4
1,2,8,19,-6,-26,-107,1,4
-17,3,19,15,7,19,-36,-10,4
-22,-13,-27,-41,-7,-9,26,5,4
0,-1,-10,-8,6,0,-14,6,4
19,5,20,17,0,26,101,-14,4
-8,-8,-17,-20,-9,-10,35,0,4
18,10,-3,10,8,21,-64,-11,4
-18,-13,-25,-59,-12,-24,19,22,4
-3,3,16,22,4,-2,-7,-41,4
2,-1,2,6,3,0,-23,15,4
-36,-2,9,6,5,35,9,-27,4
16,4,5,11,-8,-15,-2,11,4
1,5,-5,-12,-6,-14,-31,6,4
-18,-6,4,2,5,-28,-4,-1,4
31,2,-3,-5,0,28,-20,-23,4
-1,2,-2,-9,1,20,40,3,4
1,-3,-5,-3,2,-12,4,-1,4
3,10,20,27,0,6,-3,-17,4
11,-3,-3,0,2,0,7,12,4
-4,-2,-9,-18,-5,-9,-46,-23,4
12,1,-19,-37,-4,5,-43,15,4
-2,4,19,41,0,11,116,0,4
-18,-15,-10,-33,-2,23,7,12,4
-21,-12,4,1,-5,-38,-39,4,4
-22,-9,-12,-10,-6,17,55,15,4
11,8,-7,-11,-1,-38,-70,9,4
12,13,20,43,1,-13,2,-4,4
-10,6,11,3,1,29,34,-31,4
2,2,2,3,2,6,-33,0,4
11,-4,-5,-6,-8,-15,-33,15,4
-4,1,2,-2,2,-20,34,-3,4
-18,-4,0,1,-2,19,17,14,4
-3,-4,-3,6,-1,-2,-17,8,4
-10,2,-5,-11,0,-8,-36,-13,4
-5,0,-2,-21,5,16,60,12,4
2,-6,-22,-8,-12,-35,-48,13,4
7,4,8,15,8,3,-52,-11,4
3,1,5,15,7,25,118,0,4
-13,-7,10,26,-4,-6,-41,18,4
13,5,-12,-56,-9,-39,-64,13,4
-2,0,14,63,10,8,0,3,4
2,0,-12,-75,-7,-1,18,-25,4
7,-2,-20,-9,-3,-2,-48,6,4
0,-2,6,34,6,30,114,4,4
8,0,-2,-1,-2,-43,-91,-10,4
-17,-2,16,21,2,25,86,3,4
3,-1,3,14,2,7,-25,-12,4
-4,-1,1,-3,9,3,-8,1,4
10,-1,3,-10,1,17,51,-31,4
8,-2,-8,5,-3,-40,-115,0,4
5,4,-1,-13,-2,-26,-28,2,4
10,-3,-3,4,-2,38,98,4,4
-7,0,0,-5,9,52,-30,9,4
-4,-3,-6,0,-8,-36,-22,28,4
4,1,13,37,-2,-13,19,0,4
14,9,11,-34,8,-8,-14,-21,4
0,-2,-10,9,-11,-9,53,1,4
10,-6,-33,-42,-2,20,25,1,4
-20,-10,-10,-46,-5,-6,-27,3,4
2,-1,11,27,3,6,-31,-20,4
-7,1,12,11,-10,-30,21,11,4
3,3,10,13,6,5,-10,-8,4
4,-1,-2,1,-4,-9,22,3,4
11,0,3,21,-4,11,38,0,4
3,-8,-17,-48,-7,-3,-65,19,4
-16,-3,8,28,2,18,57,0,4
14,11,4,4,0,8,46,-1,4
-1,2,-4,1,5,-7,-115,-22,4
5,4,2,-2,-1,-10,47,-4,4
-17,-10,15,22,-5,7,4,-12,4
-23,-14,-23,-23,1,13,-20,14,4
8,3,3,10,-1,-23,-83,8,4
9,3,-16,-57,2,-13,44,7,4
2,2,-3,-3,1,42,64,-2,4
8,3,10,16,-1,-36,-85,-17,4
-1,8,32,69,4,4,40,1,4
-1,-10,-38,-58,-10,4,-16,4,4
10,7,4,2,12,-6,11,3,4
-19,-8,0,-1,-20,-13,-68,15,4
13,2,9,21,5,6,59,3,4
-20,-4,14,27,2,6,-43,-5,4
-7,-4,-12,-19,-2,5,-10,6,4
11,9,13,11,7,-4,60,13,4
-11,-8,-14,-23,-5,0,-16,33,4
0,-10,2,14,10,29,48,-15,4
5,-7,-4,4,-8,-4,-51,-4,4
12,5,1,-11,-2,-27,7,-5,4
-4,-2,-16,0,-5,1,1,9,4
-3,6,8,-10,0,-5,0,0,4
11,11,-2,5,13,16,-94,1,4
-4,0,-7,-10,2,-3,102,-17,4
2,-9,-14,-29,-11,15,-100,-19,4
-13,0,22,36,4,-15,-69,7,4
10,3,-1,27,-1,-15,8,-13,4
24,18,24,12,4,20,-27,13,4
0,-1,-24,-54,-2,-15,39,5,4
0,-9,-28,-31,-11,-9,55,11,4
-32,-18,-7,-5,-10,-7,-33,1,4
13,2,17,11,4,-2,-11,-15,4
2,9,3,39,-3,10,12,-29,4
-1,-4,10,24,11,-2,-66,-2,4
1,0,4,-4,7,-15,-10,20,4
-13,-12,-15,-3,-8,37,83,0,4
9,-1,8,-5,-1,10,-13,-4,4
6,12,8,14,0,-8,75,-7,4
7,4,-4,-9,-2,-7,-25,-17,4
-11,-13,-5,6,3,2,-86,8,4
-11,-4,-5,-17,-2,3,29,3,4
7,9,37,74,4,0,27,4,4
-3,-5,-29,-93,-9,-6,34,0,4
3,1,-6,22,-2,-7,-36,-13,4
-1,-2,-9,-51,-1,16,39,2,4
-14,-5,-7,5,-2,-29,-108,-13,4
-8,-3,14,29,-6,19,95,-12,4
15,-2,5,-3,4,13,-20,-5,4
-32,1,-1,19,5,-59,-48,5,4
4,5,5,15,-8,25,79,-26,4
17,-1,-9,-26,4,18,51,17,4
-5,-3,-28,-16,-16,-5,-12,14,4
10,2,21,50,14,-4,75,18,4
11,0,-6,-25,-1,9,-49,13,4
-26,-9,9,37,1,5,2,1,4
-25,2,8,5,1,19,72,16,4
7,-3,-5,-18,-3,-14,-33,-5,4
-13,-4,1,4,-6,-4,1,4,4
16,6,-10,-8,3,-15,-37,-3,4
7,2,4,-5,11,12,2,2,4
-6,-4,-7,-11,-12,4,32,-1,4
13,2,3,8,4,26,34,-12,4
-1,5,1,-13,6,-18,-31,-2,4
6,6,13,18,-6,-23,-39,-9,4
-13,-15,-38,-54,-3,11,-9,-7,4
-7,-2,11,12,1,3,13,-4,4
5,3,16,59,-7,-14,4,3,4
15,-3,-24,-70,1,6,-62,-27,4
1,3,7,2,-3,-9,67,8,4
10,0,-6,-3,-6,-13,-37,37,4
-27,-7,0,11,-3,-4,28,1,4
-9,-2,5,11,1,-1,18,16,4
16,5,7,12,-3,2,-14,-5,4
14,2,-11,-26,3,-17,-36,-13,4
0,0,-1,-2,-13,-9,38,0,4
-32,-8,-10,-10,-3,7,-9,33,4
1,-7,3,10,4,-13,-15,20,4
-2,6,2,7,-4,8,121,4,4
3,5,0,-13,2,7,-87,5,4
-2,3,33,78,2,-8,40,-9,4
-8,-2,-36,-67,-6,-2,-39,-9,4
-11,-2,16,12,4,2,-10,-16,4
8,4,7,0,6,4,-48,4,4
0,-14,-45,-68,-10,-2,72,-3,4
7,10,61,127,-2,2,-37,-5,4
-12,-13,-83,-128,-10,7,6,-14,4
11,5,18,54,0,-6,53,3,4
15,11,25,47,13,-26,-96,-12,4
-35,-8,4,9,1,19,37,-48,4
-21,-3,14,28,-1,4,74,0,4
0,-4,-4,-9,-2,28,-15,-46,4
-6,-4,-10,-22,-6,-16,42,-5,4
10,2,0,-7,7,1,-46,10,4
5,-2,6,17,-4,-11,6,-22,4
-5,-2,-14,-32,-2,-8,-40,4,4
17,7,6,2,0,-1,-6,-2,4
13,9,4,-5,3,12,-1,5,4
-7,-2,1,6,-2,-34,-33,9,4
4,-6,-11,-29,-2,12,16,12,4
-1,4,25,60,2,3,3,-1,4
-12,-21,-54,-74,-10,-3,-35,9,4
5,4,19,12,10,4,13,6,4
-2,-5,-15,-6,-7,6,80,9,4
3,5,32,64,8,-2,-33,-4,4
-3,4,-6,-60,-3,-10,71,6,4
-25,-1,6,22,-12,-32,-120,3,4
-30,-7,-2,-1,7,-16,72,0,4
-8,-7,-15,-8,-8,14,80,33,4
34,5,14,20,0,-22,-10,-6,4
-20,-2,-1,2,-9,22,14,11,4
15,2,-3,-13,-10,-5,3,-7,4
11,-3,-21,-42,2,11,-61,-42,4
-6,-1,9,33,11,6,-14,-51,4
22,3,2,-7,3,9,-7,7,4
-2,0,6,29,2,-8,-59,3,4
-6,1,15,11,0,-8,24,-11,4
-14,-9,-44,-26,-16,9,2,32,4
18,0,3,45,16,23,7,-16,4
-15,-6,-10,1,-8,-21,21,-6,4
-3,-2,-1,7,5,29,-3,2,4
0,8,27,44,-1,-27,50,10,4
-1,2,-6,-2,-1,2,-27,0,4
19,8,4,-4,1,-11,-34,16,4
1,2,22,28,-5,6,47,-5,4
-4,-5,-17,-53,4,20,35,7,4
14,2,-2,7,14,-6,66,1,4
11,-4,-4,5,-12,-18,-98,17,4
-11,-6,-10,6,-3,-16,-33,2,4
-1,8,43,70,5,14,-18,4,4
-20,-5,-33,-82,-2,-32,5,29,4
3,-8,-9,-18,12,30,8,-8,4
7,4,-5,-56,5,12,1,6,4
17,5,3,11,4,9,88,29,4
-6,-1,7,-29,-15,-2,0,-7,4
9,7,10,-4,1,-8,-53,-17,4
12,1,-5,-3,-2,13,25,13,4
1,-4,-12,3,5,2,-53,0,4
9,2,7,43,-4,21,126,-13,4
-4,-3,1,14,-2,-17,31,2,4
-15,-10,-8,-11,1,41,-4,-7,4
-3,0,3,-12,-10,-44,-67,3,4
14,8,13,20,1,-18,-86,-6,4
0,7,25,1,-6,-12,58,-5,4
-16,-21,-65,-85,-5,-20,37,11,4
0,-1,7,7,8,23,-5,-7,4
22,-5,-29,-34,-5,6,-48,10,4
6,3,4,0,0,5,43,3,4
14,9,23,27,-3,-27,-41,-7,4
2,-7,-12,-38,-6,7,14,-4,4
4,-1,16,26,4,-8,-38,3,4
-10,-1,2,-5,6,35,21,7,4
12,6,-2,-9,-3,-19,0,-3,4
-20,-3,-2,-3,-3,-1,-28,-18,4
-33,-5,9,2,-2,5,-7,15,4
7,1,-8,-2,9,12,17,-4,4
2,3,-5,-15,-3,10,-62,-1,4
3,0,16,39,6,-18,42,6,4
-19,-8,-14,-43,-17,-25,-63,-7,4
-6,-5,-9,2,3,7,31,9,4
4,10,40,48,4,8,44,6,4
5,0,-30,-83,-8,-8,-61,9,4
25,0,0,-5,-3,8,37,-1,4
0,-3,-23,-31,-5,-22,13,5,4
-2,1,4,8,11,52,98,29,4
22,2,8,1,-3,-25,-82,5,4
-13,-9,4,24,10,5,-11,9,4
-10,-1,15,4,0,-1,-19,-12,4
-8,-1,-9,26,-2,-8,32,-2,4
2,6,3,-18,-2,11,20,-10,4
-1,1,13,69,2,13,86,-1,4
-1,-4,-27,-87,-7,7,20,-1,4
-6,-7,8,42,-3,-40,-33,-26,4
-16,-3,-1,-1,0,14,42,18,4
-1,-2,-25,-47,-2,0,-51,-6,4
-7,12,11,45,0,9,29,3,4
-16,-22,-8,-35,-1,-13,-21,5,4
16,0,5,42,4,11,7,-16,4
-4,1,8,-8,-4,1,98,-6,4
9,7,20,28,10,-2,-86,4,4
1,3,-16,-40,-5,3,14,-13,4
2,1,23,77,7,34,1,-3,4
-12,-10,-18,-67,-9,-47,85,2,4
-10,-8,-12,8,-9,-13,-77,-4,4
19,7,-4,-4,10,9,-4,-8,4
1,-4,8,24,11,12,42,9,4
15,7,11,32,1,31,-23,-9,4
-5,-5,-8,-22,-8,5,22,4,4
1,-2,-3,1,0,-17,44,7,4
-11,-6,-12,-30,-10,-4,-12,-22,4
10,5,6,19,5,15,-12,-15,4
3,3,15,38,1,-18,-29,1,4
0,-3,-8,-17,-6,23,32,-10,4
-5,5,6,-11,-1,-12,-53,-24,4
-11,-10,-21,0,2,-2,55,-2,4
-6,-13,-14,-44,-7,6,0,-5,4
-18,-1,-13,-42,-11,-20,-57,2,4
-1,-1,-4,17,-8,-10,14,7,4
3,6,15,23,9,6,-27,-5,4
3,-6,-1,24,2,-6,-38,16,4
-15,-2,-4,-33,-12,-14,33,-4,4
-1,2,3,0,-4,-25,-67,1,4
-23,0,9,2,-1,25,85,25,4
12,7,3,20,10,3,-65,10,4
3,-2,0,8,2,25,-43,-11,4
8,1,0,15,-7,-20,15,-2,4
-11,1,1,-33,-1,-17,-48,-7,4
-7,-2,0,-7,3,6,36,-1,4
11,2,-10,7,-8,-14,2,17,4
9,1,-5,-11,4,16,20,5,4
-11,6,48,103,9,12,-37,-28,4
-1,-17,-60,-87,-20,-9,48,-24,4
3,0,6,51,5,-5,-59,4,4
-5,-3,-8,-8,-2,1,25,6,4
9,1,8,22,-2,-16,-16,-12,4
-6,6,26,33,3,7,-10,2,4
-1,4,-4,-21,-1,0,-60,-13,4
5,-1,0,-11,-7,9,107,6,4
-2,-4,-14,-24,-7,-32,-88,10,4
14,4,11,22,0,32,-16,34,4
6,0,-13,-23,-3,-40,23,10,4
-26,-10,5,23,11,9,38,7,4
3,-12,-18,-37,-3,14,2,-21,4
3,5,0,-1,-6,-14,0,-3,4
12,12,33,32,9,33,4,4,4
-15,2,-6,-9,-3,-34,58,-21,4
-4,1,19,-3,-1,2,-11,21,4
-24,-27,-76,-66,-9,-9,-1,1,4
14,5,16,23,-2,14,48,2,4
-9,0,-9,-43,-4,6,-18,19,4
-8,2,5,14,3,9,4,27,4
14,12,30,37,4,-1,25,-19,4
-16,-5,-4,-3,5,-14,-37,2,4
3,-2,-6,9,1,-1,36,0,4
6,6,-1,12,-10,5,-54,-8,4
-3,-2,10,5,3,-7,30,-12,4
-8,-11,-17,-12,-8,-6,89,0,4
6,-1,5,3,-1,9,-41,0,4
9,-2,-13,-10,-1,-3,29,-1,4
-5,5,13,19,-1,4,5,-9,4
14,10,20,31,2,-26,-32,-7,4
-2,3,18,47,-2,16,-33,-4,4
4,-16,-71,-115,-20,-19,4,5,4
-2,-3,4,10,11,40,43,0,4
-1,-3,-4,4,-1,-17,-18,8,4
2,5,25,49,6,3,-17,19,4
17,9,4,3,9,19,-3,-20,4
3,-1,-7,-23,-8,-27,-28,7,4
1,-3,0,-13,-4,4,41,-10,4
-7,-10,-13,-10,0,0,-63,-14,4
5,6,32,38,5,-8,-13,-1,4
8,4,-2,-13,2,7,73,-8,4
3,-2,-7,-5,-3,21,11,-5,4
9,1,-3,-8,-9,-21,16,1,4
2,1,-1,14,6,10,-52,-1,4
-20,-4,13,19,0,16,96,3,4
-3,-4,-9,-11,-1,-5,-3,4,4
-10,-2,3,-15,5,10,7,-5,4
-7,-10,-5,-4,-4,7,61,2,4
24,6,-10,-6,-8,-40,-55,-3,4
-16,-5,10,27,0,0,-68,-10,4
15,6,25,69,4,2,5,12,4
5,-1,-37,-90,-9,-6,9,26,4
11,3,11,59,4,-1,-31,-9,4
13,-5,-28,-18,-6,-8,-14,13,4
9,1,-5,-11,-2,6,-26,-4,4
-4,-3,12,42,8,10,26,0,4
-9,-3,13,-1,-12,-33,-90,3,4
-6,-4,0,-11,1,8,82,3,4
-15,-5,-13,-26,-6,12,31,-14,4
-4,3,15,27,0,-22,-74,-19,4
-3,-2,-5,-24,3,8,34,-17,4
-14,1,2,5,-6,11,17,-9,4
30,1,-11,-28,-4,-15,-39,1,4
10,1,-2,8,0,24,100,-5,4
15,10,13,24,4,-7,-21,-15,4
-14,0,-5,-19,-1,-14,-114,21,4
-6,-4,17,54,4,18,-5,13,4
-15,-7,-17,-50,-3,-23,-93,0,4
-10,-14,-38,-59,-9,-2,30,-2,4
8,9,25,53,8,13,35,2,4
-7,-2,-29,-71,-6,2,-2,-3,4
12,4,23,61,4,-11,-5,-3,4
-11,-2,5,10,3,17,15,14,4
-5,-9,-4,-20,0,1,7,0,4
-5,-2,-7,-6,0,-28,-49,10,4
12,-1,4,19,-9,4,-81,-7,4
-1,5,4,-8,6,8,-29,6,4
-1,-3,-2,3,-5,-33,26,-1,4
0,1,-3,-8,0,-10,-61,-11,4
-6,-7,-10,-6,1,13,127,5,4
19,5,11,16,6,18,-20,-3,4
21,4,-6,-16,-4,-7,-77,12,4
-27,-11,-3,-1,5,3,47,-4,4
8,6,22,49,0,-8,-10,1,4
-12,-6,-7,-53,-10,-22,-101,5,4
7,-1,-9,-12,1,6,72,3,4
9,4,-5,-12,-1,12,34,-7,4
-12,1,-7,3,-3,-8,-10,-6,4
-8,-1,10,25,2,-1,65,6,4
-5,1,-4,-24,5,14,22,-4,4
0,-2,7,-6,-3,-10,-15,-8,4
-8,-6,-15,-7,0,-6,-3,4,4
5,7,16,36,9,19,-84,5,4
-4,-3,-2,-16,-8,-20,92,-8,4
-1,2,0,15,-4,7,-41,0,4
-5,1,4,-7,8,16,60,-11,4
-12,-8,-6,-9,-3,-21,-55,-24,4
-7,-1,5,21,9,15,-90,5,4
-8,-2,-5,-13,-2,2,69,-30,4
10,1,1,1,-4,-12,29,27,4
-18,-4,-2,4,2,5,-52,-13,4
-4,-3,-7,-9,-5,9,94,-7,4
-1,-1,8,16,-3,-31,-97,-3,4
-2,0,1,-6,1,16,21,8,4
3,4,-7,-3,-4,2,76,7,4
6,-1,-9,-32,-6,-23,-81,1,4
11,-1,-8,15,1,24,84,8,4
-17,-7,-8,-29,-1,9,24,-3,4
8,5,13,28,-1,-24,27,13,4
-2,3,8,20,-3,-1,-73,-7,4
-11,-2,-6,-19,8,12,-6,28,4
-3,-2,2,5,-5,-28,-14,-2,4
11,4,3,5,-1,28,98,10,4
8,-3,-2,1,4,-6,-43,11,4
14,4,1,0,-7,-3,-24,18,4
1,3,-4,-2,-1,-8,10,-10,4
-22,-3,9,9,0,8,64,19,4
-4,-3,-2,-14,-3,1,-51,-9,4
-26,-4,-9,-14,-5,14,110,-16,4
-5,-1,-3,-3,0,-20,-92,-27,4
7,1,9,27,0,5,33,-2,4
0,5,0,4,2,18,-8,-12,4
8,-3,-12,-36,-5,-46,7,-2,4
4,7,19,29,6,25,62,10,4
-14,-16,-35,-50,-7,-7,-7,-2,4
-6,-4,8,37,-8,-2,36,-10,4
4,3,4,7,8,-26,-43,-1,4
11,-3,-24,-34,0,17,37,7,4
-2,-5,6,1,-5,-7,-23,-14,4
6,1,9,12,4,4,-10,5,4
9,-3,-10,-15,-7,4,40,6,4
10,9,12,24,6,-5,13,-1,4
0,5,3,4,-1,-26,-30,15,4
-9,-3,-2,-3,-2,34,114,10,4
-13,-3,7,6,-1,-16,-74,-6,4
7,-2,-4,-4,-3,16,16,2,4
7,1,0,0,-5,-17,-7,7,4
-2,3,-4,-13,1,26,44,1,4
5,2,5,2,6,-20,-7,0,4
-11,-3,0,10,-8,-25,-16,8,4
-2,-7,-11,-30,0,1,-65,-10,4
7,-4,-2,-3,-2,5,-3,-12,4
2,5,14,42,5,42,69,-17,4
16,-5,-18,-55,-9,-50,-105,-11,4
7,8,20,60,3,5,110,-1,4
4,-5,-24,-52,4,-7,-41,-2,4
17,-2,3,-1,-4,-2,-83,-7,4
-13,1,13,23,2,22,52,-20,4
0,0,1,-8,-3,-11,-81,-1,4
3,3,12,19,-3,-12,52,8,4
0,-2,-5,-2,-1,3,-4,8,4
-8,5,0,-12,4,15,-46,3,4
-11,-3,-5,-2,4,14,31,-17,4
-2,2,2,4,0,0,11,-3,4
-13,1,-5,-5,-4,-17,-89,-1,4
-15,-5,9,32,3,1,36,-3,4
-4,-6,-7,-39,1,28,89,-1,4
-13,-5,7,33,-1,-30,-87,2,4
8,-8,-38,-43,-4,22,127,13,4
-2,-4,-4,14,-12,-14,-83,29,4
20,11,-1,-33,0,-5,6,10,4
-6,2,3,9,3,11,-37,-26,4
-4,-1,11,18,-6,-10,-18,8,4
5,4,4,3,-1,16,24,4,4
7,-1,1,17,3,-13,15,-1,4
-2,-3,-1,-3,-4,-2,11,4,4
-18,3,8,1,4,12,44,-30,4
1,-1,-6,-8,-6,-15,-37,-4,4
-7,-8,-2,0,1,10,-113,-1,4
-5,-1,5,20,-2,10,39,11,4
-2,-2,-13,-18,-6,-38,-45,9,4
5,-4,-2,-16,7,20,53,6,4
7,3,3,21,0,8,-2,4,4
6,4,14,29,0,-11,-11,4,4
-1,-4,-24,-34,-8,11,60,-5,4
7,-3,-7,-25,-7,-21,-52,0,4
4,5,9,9,4,1,12,7,4
-14,-6,9,3,0,-7,59,11,4
-5,-10,-5,11,-1,7,-32,6,4
-2,-7,-11,-16,2,7,49,0,4
13,2,-5,2,3,5,69,15,4
30,9,3,-9,-2,3,-45,-14,4
-7,-3,7,2,0,7,-77,-9,4
-1,-1,-5,0,-6,-30,79,12,4
0,-3,0,9,5,6,12,3,4
-2,-3,-8,-10,-2,16,63,1,4
6,5,5,-10,0,-10,-58,-3,4
-4,-2,0,7,3,19,18,-34,4
-8,-2,-4,-13,-6,-16,-29,0,4
2,0,-12,-15,-8,-33,-29,-1,4
-5,0,10,15,12,32,6,2,4
2,3,15,9,1,10,-8,1,4
-2,1,-2,9,-6,-8,35,-6,4
1,-4,-30,-45,2,4,-67,4,4
18,8,10,16,-2,-19,-4,-10,4
-8,-3,3,13,4,-4,-59,8,4
-31,-13,5,-1,-9,-9,-63,-12,4
-22,-9,-3,-2,-1,12,56,21,4
24,6,-3,-6,4,3,59,18,4
1,7,7,13,-4,-6,-45,-20,4
21,7,0,8,4,-33,-104,-3,4
-25,0,2,2,-2,13,59,-20,4
-8,-11,-9,-19,-5,3,70,25,4
0,0,-3,0,-4,16,64,-12,4
6,6,4,7,1,3,12,7,4
20,10,3,13,5,-31,-55,-7,4
1,-2,3,9,-2,8,19,1,4
-5,-2,3,3,-2,4,-9,0,4
-9,-3,5,0,2,11,37,-2,4
6,1,-10,-42,-3,-3,-45,1,4
-16,-9,-24,-29,-9,-9,48,-3,4
-4,1,6,9,5,-2,-23,5,4
-1,-7,-3,3,-15,-15,-34,-8,4
4,9,29,7,7,5,80,0,4
-30,-7,-8,5,-1,11,-29,25,4
12,2,-3,-8,-4,-10,-2,4,4
-5,4,7,18,-1,11,72,-2,4
19,-2,-5,1,2,-9,-5,20,4
-3,1,10,3,-1,11,-68,-1,4
-2,-3,2,12,4,2,-28,-14,4
-32,-17,-17,-20,-10,-14,-97,-9,4
-5,-8,-11,-2,-9,-2,-27,11,4
27,20,14,14,7,-7,118,-18,4
20,17,4,1,3,-1,-25,7,4
3,-6,4,11,10,27,-7,1,4
-50,-27,-25,-39,-16,-31,-80,-24,4
2,-8,3,5,-4,7,-15,-2,4
5,16,28,53,0,-9,23,20,4
34,21,-13,-74,11,18,26,-1,4
-1,-4,-14,-19,-4,12,46,-18,4
-9,-25,-6,27,-6,-14,-6,-41,4
-30,-13,-19,-62,-6,6,52,22,4
4,4,14,44,6,-1,31,7,4
17,15,9,7,6,1,-20,6,4
16,12,9,3,-1,-2,-21,2,4
19,-1,-9,-16,-1,11,36,-23,4
-5,-3,1,13,0,-4,4,2,4
4,3,-1,-2,-5,-2,4,-7,4
4,4,7,16,8,7,1,9,4
-6,-7,-5,2,-6,-4,-8,6,4
-5,-4,-9,-16,2,25,-7,-8,4
3,-2,2,16,-3,-40,-14,2,4
-16,-1,3,-4,-4,7,-5,0,4
0,-6,-4,2,7,13,5,-2,4
0,-2,-8,-14,-4,-4,110,1,4
-2,-4,3,19,-8,8,-67,7,4
10,10,6,5,2,-15,4,-8,4
-7,-6,-4,-4,6,47,94,7,4
2,1,1,6,0,-28,-31,2,4
-10,-7,-6,-13,9,5,13,1,4
-1,-3,-13,-22,-11,-13,-20,2,4
9,-2,0,20,-7,-34,-29,-7,4
11,4,-3,1,-1,19,-31,2,4
-5,2,13,41,5,4,29,-14,4
-5,-3,-13,-47,-5,-3,-32,0,4
-3,-3,-3,0,3,7,22,5,4
10,-1,1,6,-5,-7,28,10,4
14,7,7,11,-1,-7,-71,-12,4
-12,-2,5,13,1,-9,40,17,4
-9,-3,-5,-18,-8,-3,-80,-10,4
-3,-1,1,8,4,-23,3,0,4
5,0,-7,-8,-8,5,10,6,4
-1,6,5,10,11,48,94,10,4
-11,-6,-5,-11,7,16,-79,14,4
-6,-5,-6,-7,-6,-2,38,-2,4
1,1,9,14,11,27,35,-4,4
-1,-3,-5,6,-5,-35,-64,0,4
18,7,16,11,0,3,-6,-19,4
13,0,-26,-37,-7,3,-11,5,4
-3,4,18,32,7,14,64,-2,4
-12,-10,-14,-6,3,11,28,-1,4
-11,-6,-12,-36,-6,-24,31,-8,4
-1,0,8,22,-4,-3,-35,-1,4
2,2,-4,-23,-6,-10,-21,6,4
18,7,11,29,5,10,29,14,4
-1,-3,3,17,-4,-14,-11,5,4
3,-4,7,-9,-6,-7,72,9,4
-4,-7,-18,-16,5,7,-83,10,4
-13,-3,3,-8,-13,-45,7,-7,4
-19,-8,-11,-4,-8,-6,-35,-13,4
1,4,-1,-3,3,35,16,-3,4
7,3,5,11,2,-8,-49,16,4
0,4,1,-1,-4,-17,-12,-6,4
-16,-3,0,2,4,28,92,4,4
-13,-5,-2,15,-7,-6,-38,-8,4
2,0,15,14,3,-7,53,-22,4
-16,-1,-27,-69,-2,20,-16,-22,4
22,2,-4,24,-6,-37,45,13,4
-13,1,10,-19,-3,-3,-102,-6,4
-13,-2,-6,4,-5,-6,42,7,4
7,-5,2,-13,3,9,-12,-27,4
-14,1,7,12,4,7,18,0,4
-4,-5,-9,-6,2,3,52,3,4
3,1,0,-2,-12,-40,-85,-8,4
0,-5,5,12,0,5,-13,-14,4
-7,-4,-7,-19,2,5,22,1,4
5,3,6,16,1,-9,-5,-4,4
10,7,-7,-13,3,7,41,9,4
-1,4,4,19,14,40,-16,18,4
1,-5,-7,-6,-8,-9,-55,-8,4
-11,-6,0,0,1,-24,-37,7,4
1,-1,-6,5,-6,-19,70,7,4
-7,4,18,22,3,10,-76,-3,4
6,6,-19,-52,0,3,4,0,4
-4,0,12,16,-7,-6,-50,-3,4
16,1,-8,-15,6,10,-41,3,4
4,-6,-5,15,-13,-44,-26,-2,4
3,7,13,19,0,16,45,-1,4
-3,2,2,14,5,15,23,-40,4
-12,-10,-14,-44,-4,-8,34,4,4
-28,0,9,27,5,9,7,19,4
11,1,-4,-8,-2,-14,-18,10,4
3,1,-3,-21,-2,-14,-39,8,4
-6,-2,5,15,4,29,-29,-6,4
9,1,-5,-10,-3,-12,31,2,4
0,-2,-1,2,-1,0,-21,2,4
-8,0,-2,2,-1,3,7,9,4
-6,-8,0,6,-1,7,77,0,4
-2,-2,-8,-24,-7,-7,-59,12,4
2,2,14,24,6,-10,-10,2,4
-1,-6,-13,-8,5,27,20,5,4
3,3,1,0,1,-1,40,1,4
6,-2,-5,24,3,9,-39,-7,4
6,3,0,-13,-1,-16,11,1,4
9,2,-11,-52,-3,-13,-7,2,4
1,0,-2,12,-2,13,31,-3,4
-14,-10,0,3,-10,-11,42,10,4
-4,-1,1,10,-1,0,-26,4,4
2,-1,5,14,1,2,15,7,4
1,2,1,-3,1,-4,-19,-6,4
22,9,3,-13,2,4,30,-3,4
20,1,1,6,-2,-2,-18,-9,4
-19,-1,-1,2,-4,-11,48,22,4
32,8,3,-1,-2,7,46,-9,4
12,-1,-2,1,3,-1,-46,18,4
-14,-2,-3,-7,-2,-3,-12,0,4
-3,-4,2,8,-10,-32,-75,-13,4
-24,-11,-9,-8,-5,3,55,9,4
9,-2,-4,-19,-6,-15,72,4,4
8,6,5,28,10,16,-11,0,4
5,7,12,7,7,17,-10,-19,4
-7,-3,-18,-46,-9,6,55,13,4
14,7,12,-6,3,5,-77,-13,4
-8,-8,-12,7,0,5,36,6,4
-3,-7,-12,4,-2,7,-7,2,4
-6,-4,0,6,0,27,-59,-15,4
-9,-1,-1,-6,-5,-61,4,12,4
3,3,9,-8,1,8,3,6,4
21,8,9,49,-1,5,12,-22,4
12,-6,-20,-44,0,-7,-25,2,4
6,2,-1,2,-1,20,35,8,4
-9,-4,-4,4,0,2,-30,-4,4
7,-5,1,0,-7,-20,42,9,4
-2,3,9,14,-1,0,-55,4,4
19,8,6,17,7,25,67,-13,4
-29,-11,-5,-20,-12,-37,-90,1,4
-7,-8,-7,-18,2,21,64,27,4
3,3,7,21,6,-9,16,3,4
-6,-1,1,3,0,15,13,-1,4
14,7,4,-2,1,12,17,5,4
-9,1,-4,-16,-2,-22,32,-3,4
-4,-1,9,6,-5,-11,-33,-2,4
2,0,-12,-13,9,22,32,-8,4
-18,-6,-10,-3,-4,-23,-20,-8,4
1,0,-3,-6,-4,-4,-17,-25,4
-12,3,14,35,4,20,43,-21,4
-19,-12,-6,-15,-5,-3,37,-17,4
14,-4,-14,-24,-3,10,12,-9,4
-19,-9,-8,-6,1,6,-41,9,4
7,3,2,13,-1,-13,-23,3,4
-8,2,9,31,0,17,-3,-5,4
-7,-5,-12,-41,-4,-21,0,-3,4
19,8,8,15,2,17,43,5,4
-7,1,3,7,2,-3,-33,-11,4
-10,-4,-2,-1,-2,-1,-55,5,4
21,6,10,20,1,17,127,17,4
-17,-8,-5,-16,-5,1,-72,-16,4
-12,-8,-5,-7,3,-3,-2,7,4
-3,0,-1,-3,-4,-16,5,-5,4
5,12,22,41,5,8,8,4,4
32,6,-18,-50,3,10,-22,2,4
3,0,5,28,-3,11,62,-4,4
-17,-8,-18,-34,-7,-31,-44,4,4
-11,-3,4,10,3,11,-6,2,4
-4,0,4,12,-1,11,-2,14,4
12,2,-6,-23,-9,-29,-8,22,4
9,3,9,22,6,17,100,-14,4
-3,-2,-4,-8,4,-11,-115,-17,4
-6,-1,10,20,-2,-26,-15,4,4
-7,-4,-12,-21,-13,9,53,6,4
-10,3,5,6,9,32,-33,18,4
19,2,-3,-4,2,-18,-19,-17,4
-1,1,1,4,-1,10,28,30,4
-17,-5,3,10,3,-15,6,-3,4
2,-6,-2,-10,-3,3,-16,6,4
-16,-6,0,-7,-4,7,5,1,4
5,8,13,32,9,24,69,6,4
0,-1,-7,-26,-12,-45,-128,-13,4
9,7,-6,-25,-2,12,51,2,4
16,-3,-10,13,-3,4,119,25,4
-9,0,14,8,3,-3,-39,-3,4
2,-10,-25,-53,-1,8,-28,5,4
-3,0,14,21,-2,4,-26,-22,4
-7,-1,-10,-30,-7,-21,-55,9,4
1,-1,-3,-7,-6,-19,8,-1,4
1,5,18,48,8,26,-29,-5,4
14,3,11,12,-5,-24,-66,7,4
19,-6,-8,-17,-5,-6,-2,-50,4
-18,-7,-3,1,-1,1,7,4,4
2,2,-3,-14,0,6,56,41,4
-10,-1,-5,1,-3,8,125,-20,4
-2,1,4,8,-1,-4,-17,-18,4
-8,-4,-5,-4,-5,-12,-45,-10,4
9,3,4,12,9,0,66,-9,4
17,4,-3,-2,4,3,30,6,4
-9,1,3,10,1,-2,62,12,4
-5,-5,-9,-16,-5,9,-5,-13,4
-11,0,19,44,2,-11,-42,-8,4
-5,1,-1,-27,-9,-18,-58,1,4
-1,-2,-20,-39,16,33,89,6,4
6,-5,-5,0,-5,-29,18,-2,4
-7,-6,-6,-5,-4,20,43,-1,4
-6,0,19,39,2,-6,-2,-7,4
3,3,3,11,0,15,-17,21,4
19,9,-3,1,5,1,12,7,4
7,2,-2,-14,1,2,-15,-7,4
-13,-11,-8,-3,1,-14,-18,-12,4
-3,-6,-2,-8,-9,-4,-12,11,4
2,-2,-1,5,0,2,2,2,4
11,2,0,-1,-7,-17,-30,-11,4
17,3,-7,-6,2,8,-3,10,4
3,3,3,4,-2,-1,-21,4,4
-10,-5,1,0,-6,-5,3,-8,4
0,0,-2,-4,1,1,2,-1,4
-13,-4,-8,-12,-1,-9,-8,3,4
-1,2,9,19,0,5,-1,9,4
4,1,-3,-8,-3,-8,15,-5,4
-8,0,-3,-5,4,13,43,-9,4
5,-4,-5,1,-2,-15,-81,10,4
-9,-2,2,2,-4,-15,-16,-11,4
11,8,5,0,6,23,19,-2,4
-9,-1,19,36,-1,-5,14,-7,4
16,-1,-25,-56,-3,-3,-22,-14,4
-25,-6,4,1,-7,26,27,24,4
3,-13,-23,-27,6,-49,-6,20,4
36,2,-1,10,0,11,-50,-3,4
-4,0,9,28,0,5,39,7,4
8,2,1,-3,0,-4,-17,18,4
-4,5,4,4,2,8,24,-8,4
-8,-2,3,-3,0,1,21,9,4
-6,-5,-2,2,-1,-9,-18,-7,4
7,2,5,25,1,4,-44,-3,4
-13,2,6,-12,-2,16,104,-10,4
-9,-4,-13,-2,-2,-11,-71,-27,4
-16,-2,-18,-47,-8,-22,-58,15,4
-8,-6,-4,11,0,-1,12,-16,4
-1,-1,6,1,-4,10,39,2,4
2,0,-1,10,3,27,24,-3,4
3,0,7,18,-1,-49,12,8,4
4,7,8,2,4,10,-35,-12,4
-4,0,-2,6,-3,19,0,-5,4
-12,1,3,-19,-2,-7,11,7,4
1,0,6,17,-3,-14,-40,30,4
-6,-2,2,5,6,7,68,-6,4
11,-1,-14,-29,-11,-6,-81,1,4
1,0,11,17,9,-1,-32,-2,4
-16,-2,-12,1,0,33,63,10,4
37,6,2,-10,0,-13,24,0,4
3,-4,-13,-42,-5,-6,-18,4,4
-16,-1,-12,-6,0,9,26,17,4
-8,-5,11,16,-1,-10,-65,-15,4
9,-1,1,9,3,-4,-1,-1,4
-10,-1,4,12,0,4,-71,-9,4
26,8,1,-15,-3,-7,30,-5,4
14,3,9,13,-1,11,104,-22,4
-12,-4,-7,-11,0,22,-5,0,4
-4,-4,1,8,1,-8,37,-1,4
-3,0,-3,-4,-11,-26,-37,7,4
0,-1,0,8,4,13,-41,-7,4
-10,-4,-3,-11,-8,-8,-36,-6,4
0,0,3,14,2,-2,72,-4,4
-1,-2,-7,-11,0,-9,-90,-5,4
-8,-4,-4,-6,-3,-3,101,11,4
-10,-4,-6,-8,-11,-8,-49,-13,4
-1,1,6,13,3,-3,-59,0,4
-21,1,17,35,4,6,44,6,4
1,8,8,-12,5,13,6,-12,4
0,1,-13,-7,-4,-9,20,5,4
1,-5,-12,-16,1,1,-6,1,4
10,-1,-2,-7,0,0,1,0,4
7,-4,-2,10,1,4,-5,-26,4
-23,-3,10,14,1,-5,6,4,4
-3,-1,2,3,2,5,5,3,4
-1,-2,0,6,-4,-13,6,7,4
0,2,1,1,0,7,-7,12,4
6,1,-4,-13,-3,-7,-7,-9,4
-3,-1,-1,9,-4,-5,17,-1,4
1,-3,-5,-15,-1,-16,-17,-1,4
9,-1,0,-1,0,13,-4,2,4
-6,0,-4,-9,1,1,29,-5,4
0,0,5,13,2,22,-56,-2,4
1,0,-3,-4,-2,-31,70,1,4
-5,-1,-2,-8,3,-7,-84,1,4
-6,-6,-4,1,-8,2,-25,5,4
2,3,4,7,1,6,27,5,4
7,2,-3,1,7,25,94,-7,4
-13,-7,-5,-25,-16,-46,-76,-2,4
11,2,-2,-4,-1,9,-5,-2,4
7,-1,-5,-9,6,4,-12,-3,4
1,-8,-8,2,-3,7,3,5,4
6,3,11,18,-1,12,12,-6,4
-5,1,-6,0,7,-19,5,6,4
-8,-4,-4,-8,-3,-7,0,-7,4
-3,4,17,24,4,0,-36,0,4
8,-1,-13,-27,-3,16,-2,-3,4
5,3,-1,5,-2,-9,13,5,4
7,5,2,2,1,-16,26,-5,4
-14,-2,4,-6,3,9,-30,5,4
-12,-4,-1,7,4,27,61,15,4
4,-4,-1,-5,0,2,-48,-21,4
-2,0,-2,15,-1,6,44,1,4
4,-1,1,-21,-7,-17,-5,-4,4
0,-1,-3,1,1,0,15,13,4
19,2,1,1,3,25,31,27,4
-2,4,9,12,4,-3,-9,-2,4
-3,-8,-8,-14,-11,9,-14,-1,4
6,-1,-8,-12,-1,3,29,0,4
-4,-4,-1,4,-3,-15,37,-1,4
-9,-2,4,3,-2,-7,-16,1,4
0,1,3,27,0,8,7,0,4
3,1,1,-33,-5,-10,8,-2,4
-8,-4,-9,-8,-3,-3,1,7,4
5,-1,5,12,-5,-13,-93,-14,4
12,3,-13,-25,-8,8,32,-1,4
-30,-6,2,26,-3,-6,5,-1,4
-7,0,7,-6,6,5,-18,-36,4
7,-8,-9,-2,-8,3,0,-12,4
12,-2,-4,-5,0,-24,-35,19,4
39,11,9,14,9,11,23,8,4
1,3,7,10,-14,-11,40,-10,4
-21,-6,-10,-15,-2,9,39,8,4
-8,-8,-6,-22,-5,-15,-63,-6,4
0,-5,-4,5,3,10,18,-7,4
-6,4,6,11,6,-1,-20,11,4
11,3,7,3,5,6,6,1,4
-8,3,6,32,-2,-2,72,1,4
-4,1,-7,-35,-6,-10,-47,6,4
2,-4,0,11,-3,4,22,-2,4
-20,-5,-10,-4,-10,-23,-19,3,4
11,0,0,-14,4,17,-18,5,4
-10,-3,-4,-7,-2,2,14,6,4
-6,0,5,18,5,-5,-3,-3,4
-13,-5,-6,-6,1,0,-29,9,4
7,4,5,-3,-3,-4,-20,-7,4
13,6,6,17,-4,-3,-22,5,4
-24,-8,0,5,2,11,0,5,4
-9,-7,-12,-44,-2,1,64,4,4
-5,-1,-3,3,-2,-17,-52,-7,4
-1,3,5,13,6,14,26,-6,4
9,3,-6,-15,-1,-8,-9,2,4
10,5,8,15,-7,-17,-51,-2,4
-6,0,-2,-4,4,13,26,8,4
-8,-3,-2,1,5,6,108,-12,4
6,1,5,5,-6,-8,-41,7,4
27,2,-7,-6,1,4,3,-19,4
-9,-4,-8,-16,0,-3,-25,-1,4
-4,1,11,31,2,-4,-12,13,4
6,9,5,0,2,6,10,3,4
6,1,-16,-20,-8,-6,-4,-5,4
-6,-6,-15,-23,1,12,22,5,4
-7,-2,-2,5,-8,-24,-65,-5,4
7,-1,5,5,-2,16,14,-14,4
9,7,14,17,6,4,26,4,4
-3,-3,0,11,-9,-25,51,3,4
-2,-1,-1,-3,1,7,22,18,4
-2,-4,-4,-11,0,-22,-83,1,4
-10,-2,3,12,-6,8,23,4,4
-11,1,-2,-10,1,11,4,0,4
1,-2,0,1,-1,5,-14,-2,4
8,4,-8,-9,-2,-7,0,1,4
-1,-1,5,11,4,14,29,2,4
-2,-2,0,-2,2,2,-14,-12,4
-13,-10,-17,-15,-9,-13,-28,-11,4
-15,-2,4,6,5,14,81,6,4
10,2,5,-2,0,-21,-80,-8,4
-13,0,8,13,-2,25,66,-1,4
-10,-4,-15,-15,-7,0,-31,8,4
13,2,0,-1,-2,-9,-5,5,4
-2,2,2,3,1,-22,11,26,4
7,1,6,8,2,-2,-28,-12,4
3,-2,-5,-11,7,21,23,-8,4
-14,-5,-3,-1,-7,2,-4,-1,4
2,0,0,2,-1,8,-40,11,4
10,1,-2,6,3,-9,-6,3,4
-6,1,0,-5,0,1,12,-8,4
10,2,-2,-8,3,7,38,3,4
-2,-8,2,9,-2,-7,23,-8,4
-30,-5,0,14,-1,14,26,-4,4
8,0,-6,2,2,-10,-23,2,4
-2,-1,-8,-30,-4,-8,2,0,4
4,0,0,4,1,10,35,-7,4
13,1,-7,-11,1,-10,-86,32,4
10,5,11,2,-2,-2,-21,-11,4
-30,-14,-7,-3,3,7,10,24,4
-34,-10,-7,1,-1,-19,-6,2,4
15,10,36,32,1,-8,1,-3,4
4,-12,-42,-17,2,26,17,-9,4
-5,3,-1,-8,-5,-29,-56,5,4
-2,-2,4,-3,-3,20,59,6,4
-3,0,-6,1,-2,-8,-34,0,4
4,6,14,8,-7,3,81,7,4
0,0,-2,3,-3,-11,-56,-10,4
4,1,-3,-4,7,13,37,-5,4
1,-3,-6,-10,-10,-26,-9,-7,4
-5,-3,8,14,4,-3,7,-1,4
4,1,-2,-5,2,9,2,-12,4
3,4,16,45,0,-17,17,2,4
6,-2,-21,-64,-3,9,32,-4,4
-10,-1,-1,-9,-1,-7,-32,5,4
13,0,5,16,1,8,40,-7,4
4,2,-4,-9,-4,-4,-41,8,4
2,-3,-8,5,2,9,17,-1,4
4,4,10,2,4,9,0,-6,4
-6,-2,9,8,-4,-11,-18,-6,4
8,2,-14,-14,6,8,27,-1,4
-1,-6,-7,-3,-4,11,-3,-8,4
7,3,7,4,-4,-11,-3,4,4
5,2,1,12,8,20,45,-9,4
-12,-1,8,-6,-2,-17,-128,-8,4
-11,-8,-18,-15,2,3,48,-4,4
-1,-2,4,-9,-3,-1,41,8,4
6,2,1,14,1,-11,-30,-1,4
-3,0,-8,-3,-2,12,26,-19,4
10,9,8,5,6,-7,20,0,4
-6,-4,-5,2,-8,-11,-71,-15,4
-13,-5,-12,-48,5,11,-9,4,4
7,2,0,-9,-9,-14,57,1,4
-6,-3,-1,23,4,18,-49,-2,4
4,2,8,13,6,-9,-4,8,4
-4,-2,5,21,-11,-19,60,4,4
4,-2,-2,-28,-6,-3,-85,3,4
14,6,2,4,11,20,38,8,4
-14,-6,-5,0,-5,-31,42,6,4
1,4,3,-1,4,16,25,8,4
10,-1,1,6,3,14,-28,-12,4
19,0,1,2,-9,-17,-20,-20,4
-9,-8,-5,1,1,1,-64,8,4
-16,-4,-7,-16,-4,4,54,6,4
1,4,3,9,-1,1,25,4,4
3,3,2,-14,1,5,-24,5,4
17,6,15,33,3,10,28,2,4
-1,0,-11,-21,-9,-14,-54,-8,4
-17,-4,-6,-2,8,5,43,6,4
-4,-1,-2,-1,-6,-5,-42,-6,4
-4,2,6,-1,2,-5,-14,-8,4
0,-4,-7,-12,-2,14,14,-25,4
-17,0,5,14,0,-22,17,-1,4
-11,-4,0,-1,-4,-17,-20,17,4
7,4,5,16,1,-14,8,-54,4
10,2,2,-8,-1,24,-12,13,4
4,-4,-6,-12,-3,5,13,6,4
-24,-11,-3,0,-3,-7,16,-1,4
-13,-4,-8,-15,-2,4,-17,8,4
15,0,7,18,3,-18,-46,0,4
1,1,-3,-8,1,8,98,-8,4
-1,-1,-1,1,-4,17,104,11,4
-2,-1,-3,-5,-7,-16,-58,2,4
32,6,10,15,3,2,7,-5,4
-2,-2,0,17,2,2,-20,2,4
-2,1,1,-5,4,15,15,-3,4
14,1,-22,-34,1,-31,-40,3,4
-22,-8,-2,5,-4,15,66,4,4
-1,-2,1,2,-3,8,-30,4,4
2,2,14,19,-1,-4,-5,-7,4
2,2,6,3,1,17,17,4,4
-1,1,-4,1,1,-10,-44,-7,4
-4,1,1,-27,-5,-15,15,-13,4
-3,-11,-10,7,4,18,11,29,4
8,2,2,-8,0,6,28,-2,4
-8,-2,6,8,0,-4,21,0,4
1,-3,-8,-7,-5,10,-10,7,4
12,3,5,23,2,-19,-27,-1,4
-7,-5,-9,-38,-5,30,2,8,4
-23,-2,2,10,-5,-57,-1,-2,4
6,-3,-10,-4,-3,9,-80,-5,4
-2,7,16,17,-1,-3,25,-3,4
7,-2,-16,-6,1,9,23,7,4
-8,5,11,17,2,4,10,5,4
-5,-9,-18,-33,6,6,26,4,4
-13,0,-3,-7,-5,-9,29,-8,4
25,7,9,10,-8,-28,-1,-3,4
29,0,3,4,-6,14,18,-13,4
7,-1,-7,-10,2,-19,-8,-7,4
-3,-4,-1,1,6,35,7,19,4
-7,0,4,5,1,-12,-46,9,4
32,-1,-9,-5,-3,17,40,-27,4
14,3,13,23,-9,-26,-93,4,4
6,-1,-3,6,5,3,-15,-9,4
-5,2,3,-19,1,14,38,7,4
-7,-4,-14,-33,-1,-15,6,16,4
-10,0,12,14,-3,10,-5,6,4
-1,1,4,7,0,-19,16,-13,4
-13,-8,-16,-2,1,11,35,-2,4
-10,-1,1,7,0,-5,16,7,4
0,2,0,-3,1,21,109,1,4
6,1,-5,-23,-10,-23,-68,0,4
-30,-6,9,8,2,9,40,-9,4
20,2,-1,6,3,-2,-27,-13,4
-17,-3,4,16,13,27,45,4,4
-8,-3,0,1,-13,-38,-57,-47,4
9,-10,-1,21,4,17,-40,20,4
-20,-3,-7,-22,2,-3,59,6,4
13,6,5,8,1,30,56,-2,4
14,5,-4,-15,-8,-31,-14,10,4
1,-1,3,3,-5,-24,-93,-15,4
-16,-4,0,6,-2,-3,-14,3,4
3,3,7,-8,2,8,33,7,4
0,-4,-6,-3,-1,7,9,4,4
3,5,9,26,1,-3,22,2,4
-15,-7,-15,-26,-3,-3,-73,6,4
-4,-2,-8,-19,-3,-8,-34,-2,4
3,3,-2,-6,-1,-5,0,5,4
19,7,16,24,3,11,8,-11,4
-16,-4,1,7,0,-11,-28,23,4
-15,-10,-7,-9,-6,-8,-16,-2,4
4,-3,-2,-18,12,8,19,-42,4
1,5,1,6,-2,27,50,-2,4
-21,-2,0,4,-3,-1,23,5,4
22,6,0,9,2,-17,-109,-22,4
-9,-6,-7,-9,-7,11,59,12,4
20,3,0,-6,1,17,75,-22,4
0,1,0,-3,-8,-16,-49,-13,4
-11,-3,1,28,9,-10,8,-8,4
-20,-1,6,-3,4,23,30,4,4
0,-4,-17,-32,-4,-4,-44,15,4
10,5,26,38,5,6,-11,-3,4
-5,-5,-24,-32,-8,-18,-37,-4,4
-13,-5,-14,-10,-4,16,81,31,4
-8,-6,-2,13,4,-8,-51,29,4
48,9,2,-4,3,12,42,2,4
10,4,20,21,2,-11,-28,-2,4
-18,0,2,7,1,9,50,7,4
-21,-4,-5,-13,-2,-21,-39,19,4
-3,-2,-3,0,3,22,34,-2,4
-2,0,3,9,0,-3,29,9,4
19,1,-4,-6,-5,17,-41,-5,4
-17,-4,0,4,-2,-28,-19,-11,4
-17,-3,-1,-1,7,13,42,4,4
9,0,-5,-12,-11,-14,-1,-11,4
8,-1,-2,1,4,-2,-9,9,4
8,3,5,14,-1,-10,-53,-10,4
7,1,-2,-8,-1,25,58,-18,4
-34,-2,-5,0,1,-9,0,-4,4
13,9,29,40,7,4,-21,-21,4
-10,-6,-23,-41,-10,-8,20,-20,4
19,-6,-18,3,11,-3,-104,-23,4
13,-4,2,-6,-9,-5,88,-13,4
-2,0,7,18,5,19,-2,-12,4
3,4,12,17,3,5,127,3,4
-21,0,-2,-18,-20,-21,-128,20,4
23,7,4,4,3,-20,21,-28,4
-10,-3,-3,-5,-4,-3,-14,35,4
13,1,1,2,18,-1,-58,-3,4
-21,-4,-7,-10,-6,30,-13,4,4
4,-1,2,4,-2,15,49,16,4
2,-3,-5,-3,-15,-67,-59,12,4
0,2,3,-3,-1,1,24,-3,4
6,8,11,13,16,10,24,1,4
-14,-8,1,-4,-9,9,-58,10,4
-1,-4,-19,-23,6,-12,-15,-16,4
-5,4,12,36,-7,10,43,24,4
19,11,35,57,1,-17,-27,8,4
-23,-26,-98,-108,-18,-6,31,40,4
12,1,12,26,0,5,-11,9,4
8,-2,-2,22,4,13,19,20,4
4,-7,-18,-47,-10,-19,-15,-6,4
-7,3,31,45,7,-15,-41,-14,4
-13,-2,-3,-16,-1,24,73,13,4
-11,6,8,14,-5,29,22,-16,4
-3,0,4,-6,-13,-89,-36,-52,4
-38,-5,8,9,19,19,46,15,4
-31,-11,-13,-19,-8,39,5,-4,4
26,5,6,-4,8,33,46,-11,4
-1,2,-12,-13,-7,-36,-21,27,4
28,10,12,2,-2,-4,-30,-8,4
32,10,7,22,12,-13,-72,-17,4
-13,-8,-12,-17,-2,24,6,-10,4
3,-2,-2,1,5,8,12,-1,4
14,6,14,21,-3,9,19,16,4
7,-1,-7,-9,0,-20,-37,-3,4
-9,2,-2,-6,-1,-5,-21,-2,4
3,-7,-1,8,4,10,-5,4,4
-6,4,13,0,-2,-5,16,6,4
-17,3,16,35,-1,3,-11,28,4
17,-3,-44,-57,-9,-28,-14,-48,4
-23,0,13,47,2,6,50,-13,4
24,0,-6,-32,5,37,-6,33,4
46,-2,-10,-19,-12,-35,-41,-82,4
5,-3,10,29,-7,-27,-58,26,4
13,4,-2,-5,-1,17,81,15,4
6,4,6,11,1,37,-45,-10,4
-1,9,7,11,12,-3,48,9,4
-19,-6,2,-11,-7,-59,84,0,4
-11,-11,-12,-19,-4,33,-41,-9,4
-7,1,2,10,1,-5,55,3,4
-8,-4,-6,-11,-1,3,28,17,4
-3,5,20,38,4,11,-11,-4,4
-10,-4,-19,-52,-4,-6,-9,22,4
-5,-3,4,27,5,-6,7,-8,4
-2,9,-12,8,-1,6,-6,5,4
-8,4,53,25,3,13,-28,18,4
-5,-31,-61,-96,-11,-8,1,-6,4
-2,10,16,42,3,0,-9,-40,4
-24,-36,-13,46,2,0,40,-2,4
-2,42,-29,-91,-15,-4,-53,18,4
39,-18,8,56,1,-16,87,-29,4
20,-19,-12,-27,2,2,39,-7,4
20,7,22,9,-1,-5,72,-30,4
1,-10,-2,18,4,13,-78,7,4
0,20,10,4,-5,-46,64,11,4
3,-1,-12,-13,-5,22,60,0,4
6,3,8,0,12,32,35,4,4
-1,-11,-9,-7,0,-30,-1,-21,4
-14,5,-2,-6,-2,16,-23,4,4
-7,0,17,29,4,-5,-53,-3,4
-15,5,-6,-37,-4,20,-16,18,4
-3,-7,-9,2,-6,-23,-6,-3,4
-10,2,16,34,12,30,-48,14,4
3,1,-3,13,-9,-35,-57,11,4
-13,-11,-41,-95,-13,0,-1,-2,4
8,-4,1,8,2,13,36,-2,4
-6,2,3,40,4,13,54,11,4
8,-5,-13,-41,-5,-17,-31,-15,4
-21,0,3,9,-4,-11,-11,19,4
-10,-9,2,18,11,13,-39,-28,4
-1,14,18,14,-4,-14,-23,0,4
4,10,9,20,6,13,35,-17,4
-6,-6,1,2,-15,-31,-58,38,4
14,-1,-5,-4,1,22,48,19,4
-10,-1,-2,-9,-11,-21,84,6,4
-24,-8,-10,-16,-5,2,-19,12,4
10,3,0,-3,-5,-26,-76,-12,4
-7,0,4,-3,5,29,70,4,4
10,3,1,-10,1,15,24,-3,4
-8,-2,16,60,0,-25,3,7,4
-1,-10,-30,-78,-6,3,49,-11,4
-5,-3,5,17,2,-10,19,-1,4
2,-4,-14,-18,-2,3,-34,9,4
-15,8,12,-11,-6,0,21,20,4
2,-2,5,29,12,18,-18,-9,4
6,1,9,23,-3,-12,-16,-1,4
1,-5,-15,-43,3,20,21,-8,4
-18,-4,-2,4,-5,-7,-22,-33,4
5,9,11,22,-1,-3,-25,6,4
-16,-8,-10,-33,1,-7,-63,6,4
-4,3,12,29,1,-1,-44,-1,4
-15,-5,-13,-28,4,17,73,-1,4
3,5,2,1,-6,-27,-14,3,4
7,-1,-2,10,3,24,-43,-8,4
9,0,5,12,5,15,15,0,4
-11,-10,-9,-15,-5,-8,-68,6,4
-19,-4,18,29,-1,-45,53,10,4
3,-4,-15,5,-6,-1,15,7,4
-9,3,0,-13,2,12,-35,10,4
8,-4,-12,-25,-7,-15,4,-15,4
4,7,8,35,3,20,21,8,4
12,0,0,-4,-4,-19,-11,9,4
7,-1,-13,-20,2,7,1,-18,4
7,6,4,9,-3,-12,-32,5,4
6,0,2,-5,-1,17,10,-6,4
4,3,7,32,-2,5,45,-13,4
-3,-2,-11,-40,-3,-3,-58,8,4
-14,-5,-4,-4,-6,-23,22,7,4
-8,-5,-6,-5,4,14,83,-9,4
-16,-7,-5,-11,-10,-19,-49,-8,4
-10,0,7,20,-1,22,9,-9,4
-7,1,-5,-10,1,-47,-102,26,4
17,4,3,-4,6,38,56,-21,4
-3,-2,-3,-7,-4,-9,-13,14,4
-8,-3,0,3,-6,-9,-4,2,4
-1,4,8,28,8,23,45,11,4
-6,-5,-12,-28,-3,-12,-65,9,4
3,6,22,34,3,-1,4,0,4
6,-7,-8,8,2,-2,-17,-3,4
10,-1,-13,-13,-2,5,50,-3,4
-8,-7,-15,-24,-6,-5,-22,4,4
6,3,2,15,3,19,110,-3,4
4,3,12,7,-1,-18,-34,-7,4
7,3,8,12,-1,8,87,-7,4
-8,-3,3,7,9,10,-120,-2,4
2,-1,-12,-20,0,-16,30,-4,4
-3,11,18,30,-6,-25,-2,1,4
2,-5,-11,-22,0,16,5,-6,4
10,2,0,2,1,20,-4,-4,4
-10,-2,-1,-11,-1,-1,91,5,4
-9,-5,-24,-2,0,-13,-52,-8,4
13,14,42,24,3,10,39,-4,4
-13,-6,1,-29,-1,-5,-22,1,4
-6,-4,14,23,-5,-17,-20,4,4
3,-2,-29,-3,2,10,35,7,4
6,-3,7,-45,-6,-2,-28,2,4
10,2,-10,20,0,7,54,4,4
-8,-1,18,2,0,-1,-74,4,4
-5,-6,-7,-29,-4,-3,27,-3,4
1,0,-9,17,3,7,-43,11,4
9,3,10,1,-5,-13,-33,1,4
4,-5,-17,-11,-6,-3,-54,-2,4
-5,-3,6,-4,5,21,78,-10,4
-2,4,1,10,4,29,64,5,4
-6,0,-3,1,1,-38,-32,14,4
9,3,-2,12,11,7,26,10,4
-19,-1,13,5,-4,11,74,-19,4
-9,-6,-22,-16,-9,-20,-119,-23,4
-1,7,9,10,7,19,95,12,4
18,3,0,-14,1,2,1,-16,4
1,2,-18,-1,-1,-8,-63,4,4
16,8,-3,-9,-8,-8,-13,24,4
-22,-15,2,28,9,22,-28,-3,4
-4,5,5,0,-2,6,26,-23,4
3,-20,-10,-29,-1,4,-28,-8,4
17,-4,-21,-12,0,-12,-29,-3,4
-9,3,-4,21,-8,-14,44,1,4
-15,-4,-3,-37,1,12,33,-11,4
13,5,11,-7,-3,3,-3,19,4
20,8,11,13,2,-12,-22,-31,4
17,0,1,-9,-1,5,25,-4,4
8,1,-5,1,2,-4,-11,-15,4
15,14,22,31,9,61,74,10,4
-17,-7,-1,1,0,-80,-26,-28,4
12,1,-4,-8,1,11,-33,10,4
0,-9,-12,-10,-16,-8,40,12,4
3,3,7,6,1,-16,-125,4,4
-17,-4,-1,14,2,62,127,11,4
0,-3,-2,-22,-8,-38,-121,-19,4
-1,1,-4,-3,4,0,28,30,4
6,7,21,37,3,-22,-20,13,4
-10,-6,-7,-29,1,8,57,-2,4
-3,1,6,11,-5,0,19,4,4
11,-5,-41,-79,-8,14,-16,5,4
-8,1,-5,5,-2,-33,-33,-8,4
-15,-5,20,31,1,-16,-27,-2,4
-1,-8,4,4,-3,3,53,-2,4
-19,2,1,7,0,-6,-71,3,4
-5,-2,4,5,-3,-1,50,31,4
-1,6,0,6,1,11,-44,6,4
3,5,-1,-7,-2,5,61,7,4
24,-3,2,11,-5,-31,-9,-38,4
-8,-5,-8,-11,-5,-40,-57,16,4
7,1,-2,-1,3,42,28,5,4
5,-1,-7,-10,-5,-8,-58,-9,4
-9,2,5,3,-2,-1,-44,14,4
-6,-2,3,2,0,-10,73,-4,4
-4,-4,-10,-11,-1,-3,18,3,4
-6,4,10,23,-2,11,73,-22,4
-3,-3,1,36,3,-16,-14,6,4
0,-8,-22,-74,-1,27,-3,-13,4
0,-5,-5,-10,-11,-22,-59,10,4
0,1,-1,11,6,3,34,-1,4
-8,-6,-9,-11,1,9,-14,6,4
-2,1,11,23,3,-8,-42,-12,4
8,-4,-9,-7,0,25,33,8,4
-7,5,6,-10,-6,-18,-56,27,4
-8,-7,-2,-4,-7,-12,73,-12,4
12,-4,4,22,3,5,-1,-12,4
-53,-8,-4,1,0,-9,-52,57,4
-2,6,2,3,3,13,11,10,4
-5,9,10,0,0,9,2,14,4
-27,-2,-6,-2,2,10,38,-3,4
9,-2,1,8,-5,-9,-21,-20,4
1,-1,3,-2,-1,-6,-12,-8,4
-3,3,1,-17,5,19,77,17,4
-9,-1,1,11,0,9,-26,-2,4
18,3,10,7,3,-6,61,-7,4
0,-11,-33,-58,-1,11,33,5,4
2,-2,3,-13,-3,-12,-38,-37,4
11,7,18,48,1,-4,0,21,4
-2,-6,-9,-30,-10,1,103,-22,4
1,-4,7,32,5,20,15,-5,4
-5,-4,-10,-15,0,-21,-76,11,4
5,3,5,6,-2,-4,40,-1,4
12,8,10,4,4,1,-40,3,4
-10,4,-2,-9,-14,-53,-74,-11,4
-16,-8,-5,1,2,23,53,21,4
9,-1,-2,1,1,39,72,0,4
39,7,-2,2,-1,-22,-42,-23,4
10,-2,-2,3,0,13,43,-3,4
20,6,9,31,5,-6,-48,-35,4
4,-2,-13,-39,-8,-12,-34,-1,4
-7,-1,5,18,5,28,29,-2,4
-13,3,21,31,10,-18,-19,-4,4
2,-10,-30,-40,4,20,0,23,4
-18,-9,-15,-27,-19,-9,39,-5,4
7,3,8,18,4,-13,-51,-6,4
-7,2,-2,14,-2,-20,-50,-6,4
2,-1,5,2,-7,-2,14,0,4
11,4,-5,3,12,4,17,5,4
-11,-3,-5,-7,-14,-19,-122,-8,4
0,-3,-1,1,-16,23,80,5,4
0,6,13,38,12,18,-12,3,4
-4,-4,-6,-10,0,-17,-54,42,4
-1,2,1,9,3,-12,0,-38,4
1,4,1,-2,8,22,51,-7,4
-6,0,5,6,-7,-5,-22,-5,4
2,4,-1,-11,-2,-3,10,0,4
-2,0,-8,-8,4,6,28,12,4
-2,-5,-14,-23,-3,-2,-62,-4,4
4,3,13,42,2,4,71,1,4
0,0,-2,-21,1,-1,-24,-15,4
-11,-5,-11,-21,-3,10,44,8,4
9,1,-2,-13,-3,-15,-47,-4,4
-1,0,-2,11,7,14,50,14,4
-4,-2,13,20,0,-14,-80,-20,4
-2,-6,-4,-5,-6,6,55,7,4
5,-2,-3,-5,-1,-17,30,7,4
-1,1,13,14,-2,-4,-16,4,4
-2,3,-1,14,0,8,-1,-22,4
16,2,-19,-48,8,7,-1,-41,4
-3,-1,3,22,-1,-3,-34,14,4
21,4,-8,-30,2,3,-1,-43,4
8,-2,2,33,-2,7,35,-2,4
-18,0,14,10,-1,-3,-19,11,4
2,2,1,20,5,14,36,-2,4
-12,0,-16,-33,-9,-15,-43,11,4
5,8,7,-6,6,-15,-10,15,4
-4,-9,-9,-6,-15,16,5,8,4
11,1,3,1,4,-5,3,1,4
-7,-2,0,3,-3,-22,-42,4,4
-8,-9,-1,-2,-3,18,55,-4,4
-9,5,5,14,19,0,-65,6,4
-3,-6,-10,-27,-8,21,-5,0,4
-6,-4,0,1,-2,-3,25,1,4
-1,-1,-4,-2,1,-5,-1,15,4
-12,-2,7,11,3,10,41,25,4
6,2,16,47,2,-1,-13,6,4
-18,-2,-2,-44,-2,5,18,21,4
-6,-10,-21,-23,0,9,2,1,4
-1,4,17,46,1,-4,19,2,4
-8,-7,-18,-56,-8,-10,-35,9,4
-9,-6,-5,1,-6,-3,14,18,4
4,-3,-10,-14,-4,0,7,2,4
23,6,5,6,2,-1,-17,-20,4
-12,-1,4,4,-5,-9,5,-21,4
-7,1,11,18,3,13,63,-16,4
-15,-1,1,-8,-4,-7,-55,-10,4
15,2,-5,1,-3,-22,-15,17,4
-5,-4,-1,-8,-8,2,-34,-15,4
5,-3,-9,-1,0,-1,33,1,4
0,1,1,8,1,-4,31,-19,4
-2,-3,-1,8,4,-28,-25,25,4
1,4,-4,-6,6,26,-47,-22,4
-4,-6,-3,1,-8,3,-20,1,4
10,0,-7,-11,-2,1,8,2,4
7,7,15,18,9,7,33,3,4
-10,-10,-28,-49,-8,-12,15,30,4
5,1,9,26,-4,5,22,-11,4
-10,0,18,26,0,-4,-8,19,4
-3,-9,-39,-62,-5,18,28,5,4
0,0,12,36,4,-10,-4,-4,4
-3,1,1,-11,2,-16,30,3,4
18,5,6,20,-3,3,14,-7,4
-10,1,19,19,-14,-22,-41,10,4
-8,-8,-23,-51,4,9,16,-10,4
4,-1,-9,-8,-4,-12,-57,15,4
12,6,6,3,-5,0,34,11,4
15,-1,3,16,4,10,-50,-5,4
5,5,6,8,-4,-15,-39,-20,4
4,5,5,4,7,17,81,16,4
-13,-7,-8,-14,-6,-28,17,1,4
-11,-7,-8,1,-3,24,30,-1,4
0,-1,2,6,-1,-4,49,10,4
6,1,5,6,3,3,-33,-6,4
8,1,-4,-9,-3,23,46,-6,4
-13,-7,-15,-12,-6,-27,-33,-4,4
2,4,7,11,1,-2,3,1,4
8,-1,-9,2,-6,-20,-44,-15,4
-6,-2,4,7,-1,3,-31,-11,4
3,4,8,-19,-4,3,10,0,4
1,2,-8,-3,3,5,-12,-2,4
-54,-12,-7,-2,0,6,27,-16,4
-15,5,14,15,1,-18,-47,-27,4
-10,-11,-20,-25,-6,13,73,9,4
29,5,14,22,3,-4,-36,-1,4
19,6,3,-4,3,-7,-17,2,4
-22,-11,-10,-12,2,19,28,6,4
-10,-1,8,21,-1,-25,-81,-6,4
-7,-1,-2,-9,-1,25,82,14,4
8,3,-1,-5,4,-42,-128,6,4
7,-3,-1,-2,8,42,11,6,4
7,-1,-1,-2,-6,-8,48,1,4
-3,-2,1,17,3,2,-13,-2,4
11,4,-2,-3,-3,2,-51,4,4
12,5,0,-1,5,5,-26,13,4
22,5,3,11,-3,-9,28,7,4
4,-6,-2,-16,6,12,-12,-2,4
-3,5,7,12,3,13,52,5,4
-1,-1,-4,-9,-6,-14,34,2,4
1,-1,-9,-11,-4,-7,0,8,4
8,4,24,35,0,-8,41,13,4
18,-5,-26,-42,-12,-13,6,-27,4
2,-2,-4,0,-2,6,-10,5,4
7,10,32,51,8,-11,20,-9,4
-11,-7,-31,-72,-4,-4,21,-9,4
-6,-3,-2,11,-2,9,14,-3,4
-3,0,0,0,-1,-1,19,-5,4
7,5,13,13,5,18,50,-14,4
-12,-1,2,4,-4,-17,-18,-13,4
-1,1,9,11,3,9,47,6,4
-10,-4,-8,-17,-10,-23,-50,6,4
-5,-5,-12,-7,0,-2,-79,38,4
15,1,4,13,-8,2,91,8,4
14,-1,-4,-13,-6,1,-3,0,4
-6,0,6,17,3,-17,-26,-4,4
-11,-4,-10,-20,2,9,-6,9,4
3,3,1,5,-5,-13,-33,-8,4
-1,1,12,12,-3,-3,-8,1,4
-13,-2,-12,-21,2,3,-8,22,4
9,2,-3,-3,-3,0,-6,-26,4
2,0,6,5,4,4,-16,2,4
-18,-5,-10,-10,-2,4,-1,-2,4
8,0,8,7,6,14,44,-3,4
-11,-7,-23,-38,-9,-25,-30,-7,4
4,1,13,23,-1,-7,31,10,4
5,0,2,10,5,22,-17,-7,4
-19,2,3,-3,2,13,50,-1,4
-30,-12,-8,-1,-7,-9,59,-31,4
3,4,-1,5,4,15,-55,-21,4
-2,-7,-3,0,-6,-29,-87,-3,4
-5,-4,-6,-9,5,13,31,-10,4
27,9,10,-7,6,16,4,-7,4
7,2,1,21,-1,-12,-17,22,4
-5,1,1,-33,1,17,1,1,4
9,2,6,23,-2,-8,-34,-12,4
-6,-1,3,13,2,6,-18,-12,4
-3,-5,-19,-47,1,6,10,9,4
1,2,11,33,-2,-4,32,4,4
2,0,-11,-25,-8,-12,-40,-22,4
-6,0,6,14,2,7,-1,15,4
-9,0,-3,1,3,4,36,-6,4
7,0,6,17,0,-1,-37,-18,4
14,-2,-2,-3,-1,-2,33,4,4
-12,-3,-4,-1,-3,23,-34,2,4
-16,-4,1,7,3,-12,23,13,4
0,1,-4,-8,-1,-13,-3,4,4
0,-1,2,0,-6,-19,-17,6,4
53,5,-4,-11,-4,6,45,-29,4
-2,1,5,8,1,20,16,5,4
-14,-5,-4,-1,-5,-26,-36,-7,4
2,0,8,19,1,-2,-11,-2,4
-10,1,-7,-39,0,3,9,12,4
-4,1,9,2,-2,0,-27,-17,4
0,-4,-13,-3,-3,-19,-11,41,4
1,-4,-13,-22,-12,9,72,9,4
-23,-6,0,13,0,-12,44,22,4
1,-2,5,16,0,15,-89,-5,4
-2,-2,0,2,2,-11,61,3,4
6,7,12,7,5,29,-49,1,4
-1,0,-10,-18,-7,-44,-16,13,4
-6,-1,0,-2,-9,-12,12,-2,4
-13,0,6,18,14,36,34,3,4
-6,-5,-4,-4,-12,-28,-85,12,4
5,2,3,2,-3,7,14,15,4
3,2,-2,6,-1,-11,-11,-8,4
7,2,-2,-9,-4,3,3,6,4
14,1,-1,-2,6,3,44,0,4
-25,-4,1,7,5,8,-16,-11,4
-2,-4,-5,-2,-3,-9,-15,1,4
-8,0,6,14,-1,11,8,7,4
-4,-2,-9,-34,2,7,34,5,4
8,-1,-9,5,2,-12,-7,5,4
-9,-4,-4,-9,-2,-10,27,-9,4
-6,-2,9,10,-5,15,85,-21,4
-4,3,2,4,6,-1,-113,-5,4
0,-2,3,13,1,0,100,5,4
-3,-4,-15,-26,-8,25,-23,12,4
10,3,0,-1,7,-7,-43,-3,4
-4,-5,0,8,-9,-13,42,-1,4
4,3,8,-5,-4,19,-26,-15,4
6,-3,0,13,10,-23,-6,14,4
3,-6,-9,-8,-4,7,-78,6,4
4,2,3,12,0,-14,18,4,4
-10,-5,-8,-11,0,0,-48,-24,4
-5,4,6,3,-3,8,11,-3,4
3,2,-6,-30,-7,-15,58,-1,4
-21,-5,-5,8,4,8,98,-35,4
4,1,4,13,-3,-10,-48,14,4
5,0,3,-1,6,8,27,-8,4
9,-1,-10,-16,-6,-6,118,-5,4
-16,-6,-4,4,-9,-2,-23,0,4
2,0,2,-4,5,-6,-56,-1,4
-4,-2,-1,7,-1,0,1,-8,4
-2,1,7,23,3,2,1,11,4
8,-1,-1,-18,-1,4,-55,8,4
-3,-2,-7,-16,-1,7,77,-5,4
0,-4,-12,-29,-1,-14,12,3,4
-4,1,-2,0,3,18,41,4,4
-9,-1,3,7,-7,-22,-46,-12,4
7,0,9,23,12,14,8,-1,4
-30,-6,-7,0,0,5,-22,8,4
7,-3,-5,-8,-4,1,-24,-31,4
10,5,6,10,3,2,-3,3,4
2,3,2,0,0,12,43,3,4
-5,-2,1,4,-9,-20,-59,-21,4
-1,0,-5,-7,0,10,-86,12,4
15,0,-3,-1,0,-21,80,7,4
-9,-3,0,-10,-4,-5,-29,4,4
5,-7,-7,-9,-4,3,-69,-28,4
-5,1,5,5,5,-9,-18,-3,4
9,1,4,28,-2,26,111,4,4
-8,-2,-15,-41,-7,-5,-35,-6,4
9,4,18,45,7,5,23,12,4
1,-2,-11,-35,-3,-4,-31,1,4
-16,-1,-6,-20,4,0,-16,0,4
17,3,-1,11,-4,-11,7,27,4
20,3,-1,3,-1,-5,-63,0,4
7,-6,-2,3,-4,3,65,-23,4
11,6,8,11,1,-2,-33,16,4
22,2,3,7,3,12,14,-5,4
2,2,3,0,-1,8,18,-4,4
1,2,4,9,2,7,-58,8,4
-1,0,-4,-14,2,-1,47,-3,4
4,3,-3,6,-1,-11,-71,-12,4
-11,-4,-4,-10,0,20,78,3,4
-20,-3,2,3,-6,-3,53,6,4
-5,-3,-7,8,-2,-11,-69,-9,4
-8,-4,1,2,1,2,73,-1,4
6,4,1,-15,1,-8,12,12,4
-5,-3,-6,-19,-4,-1,-7,5,4
4,-2,-2,5,0,6,21,-3,4
-11,1,2,0,1,6,-32,16,4
11,-2,-17,-19,-3,-22,40,3,4
-10,5,9,23,4,4,-56,-37,4
-12,-6,-4,-19,-5,1,-36,-2,4
-12,-2,6,31,1,-8,39,2,4
-10,-3,-4,3,1,20,28,-8,4
5,2,0,8,0,-10,-31,8,4
22,7,3,3,-1,-4,54,-1,4
-6,-4,-3,-14,-11,-6,-117,-8,4
-5,-4,-2,2,0,-10,68,-3,4
2,1,-2,-18,-5,1,44,0,4
2,1,8,23,-1,-28,28,5,4
15,-1,-3,-2,-1,21,11,-6,4
13,1,0,9,-5,-6,10,-10,4
-2,1,4,-1,2,-2,50,10,4
-3,-6,-6,-53,-2,-6,-77,-6,4
-8,-4,-9,-1,-1,-9,74,-5,4
-3,2,4,6,3,20,-24,1,4
2,-2,-1,2,-2,-26,-7,7,4
-4,-3,-2,2,-2,14,63,15,4
-2,0,3,22,0,-11,-101,-9,4
-19,0,-5,-25,-5,3,28,32,4
15,-5,-4,8,0,-7,-25,6,4
-23,-3,-2,15,-4,-4,-36,-11,4
-4,-1,9,29,4,2,5,4,4
-12,-7,-9,-47,-2,-5,40,-5,4
-4,2,-7,-13,-9,-5,-62,0,4
-1,-1,-3,4,-1,-13,-120,-57,4
-3,1,-1,-3,9,18,95,2,4
5,1,8,19,0,-9,-35,-10,4
-14,-5,-7,-9,0,22,11,11,4
8,2,2,-21,1,7,-25,5,4
5,-1,3,0,-5,-17,6,-12,4
-13,6,4,12,3,9,83,12,4
17,2,3,1,5,9,37,-25,4
12,0,-8,-4,0,9,10,13,4
-5,-5,-5,-10,-7,-12,-11,5,4
6,5,6,22,2,1,-15,14,4
-18,-3,-3,-34,-9,-6,-16,17,4
18,7,23,54,12,10,44,-2,4
2,-4,-19,-56,-5,-14,-51,1,4
-5,-1,-6,10,-7,-8,-68,-7,4
6,2,9,25,2,0,-31,4,4
1,-1,-6,-18,-8,-8,4,4,4
7,1,11,9,5,11,0,8,4
1,-2,8,35,-5,-15,-17,5,4
-8,-2,-17,-50,-3,7,38,-11,4
6,1,1,-31,-5,-7,17,21,4
-3,2,-2,1,3,20,32,-6,4
3,6,4,-3,-2,-3,17,9,4
27,0,7,34,5,-11,-40,13,4
13,-1,-1,6,-1,2,9,16,4
-7,-6,-3,-4,-6,-19,41,-18,4
5,-2,-2,-9,-4,4,-15,-5,4
-12,-1,2,11,1,-3,-46,13,4
-7,-2,-1,7,0,6,14,-7,4
-4,-2,-7,-11,-1,4,69,-8,4
-1,0,5,0,2,9,-39,-10,4
1,1,2,20,0,-3,49,-4,4
-16,-3,-2,-21,-1,-6,-17,-12,4
6,3,-3,-5,0,23,-44,9,4
-9,-6,-24,-34,-8,-20,105,16,4
3,-1,2,5,3,7,-3,-2,4
1,0,2,23,0,-7,-5,-7,4
1,9,16,15,0,6,-11,15,4
-8,-7,-7,-31,3,8,8,-10,4
9,3,-2,15,-3,-7,-17,-17,4
-2,2,-3,-35,-5,-9,-17,10,4
3,-4,-5,10,-3,-9,-26,1,4
7,-1,10,26,10,9,39,-10,4
-16,-4,0,1,-1,0,-21,7,4
-15,-6,-1,6,-5,2,75,0,4
0,-3,-9,-12,-2,-3,55,9,4
15,2,6,7,-4,-17,-86,3,4
-10,6,8,2,-6,10,4,20,4
-5,-6,-15,-10,4,-6,4,11,4
1,-2,13,14,-2,1,2,-3,4
-9,-8,-25,-29,-2,9,11,-12,4
-2,1,3,5,-3,-3,20,-2,4
8,5,1,11,3,5,-94,-6,4
-12,-2,-8,-10,2,2,53,12,4
-4,0,24,30,2,-3,51,-12,4
-7,-6,-26,-29,-6,-7,-5,-15,4
-19,-6,-6,7,5,17,15,1,4
16,1,0,-8,1,2,-22,-16,4
14,3,6,-1,-4,-3,-51,-11,4
-18,-2,4,13,7,6,65,12,4
-3,1,1,7,-1,4,9,5,4
7,5,2,-2,-2,-3,-90,6,4
-5,1,-4,-4,-1,-7,-14,3,4
8,0,3,-2,2,1,7,-12,4
14,0,-2,0,1,15,63,-4,4
-8,-1,3,-2,-7,-32,-67,38,4
-2,-2,-3,4,-1,2,-12,6,4
1,0,2,-10,-2,2,-19,0,4
6,1,-8,-37,0,-7,70,-1,4
-18,-7,-9,-13,1,11,34,-9,4
-2,1,3,18,-5,-27,-111,7,4
-3,-3,-3,-9,-7,-1,101,3,4
-13,2,19,23,2,-2,-14,14,4
-11,3,-18,-15,-1,2,-9,-4,4
7,-9,-10,-2,-1,0,-20,5,4
31,1,-5,-7,-1,-3,-8,-15,4
-3,-3,10,22,-6,-15,-58,4,4
15,3,2,0,2,8,41,-14,4
1,6,4,-4,-2,-16,-34,3,4
-7,2,3,12,2,7,67,5,4
-4,1,-4,2,-4,-2,-86,-8,4
4,-3,11,18,0,-15,44,-12,4
1,0,-8,-20,5,53,72,3,4
9,-4,-3,-8,-2,-27,-91,-10,4
-1,0,4,-4,-5,-4,37,-12,4
-35,-11,-8,16,-3,2,34,1,4
17,1,-2,-43,0,0,-28,-2,4
-13,7,20,37,0,-5,-22,-5,4
14,-3,-30,-54,-2,-3,-31,21,4
-1,3,-2,-4,1,5,-33,-30,4
-1,-3,11,27,1,-5,38,-1,4
-4,-3,-8,-12,-2,20,74,-4,4
0,0,8,29,-5,-42,-114,-25,4
1,0,10,5,18,32,-11,-22,4
-4,3,-1,-1,0,15,97,-1,4
2,-1,1,7,-5,-10,-111,-8,4
6,-1,-2,1,3,29,93,-18,4
21,0,-2,-6,-6,-18,-52,4,4
-6,-3,5,17,1,-14,-41,-8,4
-1,-7,-6,3,1,-4,31,-8,4
-16,-1,-2,6,4,24,42,5,4
-8,-5,-6,-28,-10,-15,-60,5,4
5,-1,-4,11,-1,-4,-8,1,4
1,0,-4,-22,0,1,-22,17,4
10,0,5,15,-2,-8,14,8,4
1,0,-3,0,-1,8,67,0,4
6,-2,-5,-7,0,-14,-87,15,4
-8,1,2,4,3,17,7,-21,4
3,2,14,19,-1,-12,-29,-17,4
-3,-2,-7,-14,-4,-1,70,14,4
9,3,-1,5,-1,1,7,2,4
5,-5,-9,-11,0,-2,71,13,4
-22,-10,-6,-8,-3,-14,-27,0,4
-7,-1,7,17,0,3,47,5,4
-17,-6,-12,-55,-13,-9,-20,-19,4
8,8,12,34,1,13,-58,9,4
-9,-5,-8,-7,6,-50,103,2,4
7,-4,0,13,-2,27,7,-2,4
-2,1,2,6,1,23,-47,-5,4
0,1,1,-8,0,-6,32,1,4
-4,1,-2,-9,-2,3,-31,2,4
22,4,11,24,-1,-16,-35,-5,4
14,4,-5,-14,-2,-12,47,25,4
1,-2,-5,6,5,8,-6,-5,4
-1,0,-2,-15,4,16,-19,5,4
-9,-8,-8,-4,0,-5,-9,0,4
-1,8,17,37,3,5,3,-2,4
-9,-18,-19,-27,-8,-20,-20,8,4
2,-2,-5,-4,-2,14,-8,-2,4
6,2,0,1,-2,5,55,3,4
9,3,-5,-14,9,-5,-17,-10,4
-13,-1,8,5,-7,-8,35,5,4
-1,1,2,9,0,10,73,-7,4
-2,2,4,0,-5,-7,70,0,4
-5,1,0,10,2,23,29,0,4
2,7,4,-9,7,-33,-34,6,4
4,-6,-9,-22,-7,3,-83,-3,4
14,7,-2,-11,-2,8,10,5,4
2,1,-1,-1,-3,-1,46,-49,4
-2,-2,0,10,6,-8,0,7,4
1,0,-2,9,-3,12,-15,5,4
2,0,4,6,-3,-18,4,0,4
0,-5,-3,9,-4,-11,3,-17,4
-31,-1,-5,-10,4,25,9,24,4
13,3,-1,7,2,-4,5,-8,4
-6,4,6,5,1,0,-74,-1,4
-15,-9,-5,-1,-6,-8,-4,28,4
-10,-9,-13,-13,-3,3,-2,-4,4
6,2,6,12,-3,-3,-14,2,4
1,-1,-6,-9,3,-1,-27,0,4
1,2,-6,-21,2,0,10,8,4
-1,1,5,6,-6,-3,-57,-29,4
-7,-2,2,5,-9,1,107,5,4
-7,-6,1,15,-3,-23,-59,-25,4
-4,-2,3,4,-1,-13,82,19,4
20,6,0,-6,3,13,42,-5,4
3,0,2,7,-3,-3,34,0,4
-16,-7,-4,-13,-3,-4,-8,4,4
-16,-5,-2,-1,12,23,7,0,4
1,-4,-4,-11,-14,-18,-7,-27,4
43,4,-2,2,4,-3,-60,23,4
32,4,-1,0,-5,-11,-32,-63,4
-5,-8,2,9,0,1,-46,-9,4
8,3,7,18,-2,13,33,13,4
-12,-2,-11,-27,-3,-5,-30,-22,4
-10,-2,-3,-5,2,6,4,11,4
2,3,5,5,-6,-3,-31,14,4
17,0,-7,2,1,-7,56,0,4
-2,3,14,17,5,5,-1,-2,4
-10,1,-3,-24,3,5,-21,19,4
-5,-2,-17,-16,-10,-3,11,-5,4
-11,-1,0,-4,14,-2,26,20,4
17,-5,-11,-20,-6,-23,-94,-20,4
5,2,13,29,5,22,127,-24,4
11,5,7,7,2,1,-44,20,4
10,1,-5,-17,-5,-9,-90,-54,4
-35,-3,6,18,3,11,47,-32,4
-3,0,6,9,4,-5,-42,14,4
4,-5,-11,-12,-7,-16,-22,-11,4
-17,-9,-2,-6,-1,1,21,9,4
-9,5,7,24,2,6,9,5,4
-13,-5,2,-10,-3,-5,7,15,4
4,-3,-16,-31,-8,-1,-22,-5,4
16,3,1,4,-1,-5,-32,-4,4
-7,-4,-2,6,-1,8,70,7,4
17,9,6,-10,-3,-7,-36,19,4
8,-1,5,21,3,1,43,2,4
-6,-4,-3,-5,-3,9,4,0,4
-6,-3,-2,-5,-3,1,44,16,4
-9,-3,-3,-11,2,-7,-38,28,4
-9,-4,-8,-3,0,-16,-22,-18,4
-10,5,0,12,3,33,24,50,4
-6,-5,-3,-6,3,-30,-106,-14,4
2,4,3,8,-1,41,47,15,4
-12,4,9,9,2,-9,16,2,4
-6,-8,-13,-30,-5,-16,-52,17,4
1,-1,-7,-6,-4,-14,-8,16,4
-4,2,9,17,-3,-9,-60,-16,4
2,4,3,14,2,0,48,10,4
-11,-1,1,-9,-4,20,42,-16,4
1,0,0,7,0,-3,6,0,4
3,-6,-13,-12,-9,-31,-84,-11,4
-24,-3,12,32,6,20,33,-6,4
21,0,13,12,-4,-12,39,-7,4
3,-7,-19,-33,3,20,-32,2,4
-4,7,-4,6,6,4,68,-6,4
10,-3,-1,-9,-2,-8,-71,15,4
24,5,4,14,0,3,-2,-36,4
-18,-4,5,7,-6,5,36,24,4
-10,-2,-8,-11,-4,-20,4,9,4
1,-2,-2,0,9,11,-11,-10,4
0,1,2,5,-1,4,40,10,4
14,10,11,1,-4,10,59,-24,4
-15,-9,-16,-13,-5,-11,11,4,4
-12,-3,-6,-18,-8,-3,67,22,4
-9,1,22,57,5,-10,-58,2,4
0,-3,-31,-65,-3,3,28,-5,4
20,1,3,19,2,-5,6,-25,4
-8,0,8,-9,-10,-9,38,-3,4
16,18,-9,-22,-4,-6,-18,-6,4
-4,-48,2,13,4,4,-17,4,4
5,-13,-11,20,-1,3,-16,17,4
0,-8,-12,-27,10,17,7,-2,4
-6,0,8,15,-5,-14,-40,9,4
2,15,7,-7,-2,-11,1,-6,4
0,3,-5,-29,-3,-21,114,13,4
12,6,9,18,-3,34,44,-4,4
-1,1,-4,-3,13,-19,11,0,4
-6,7,-1,8,-6,-2,-73,13,4
-8,-4,2,8,3,11,21,-8,4
-16,6,0,-7,-18,-18,-56,12,4
-12,-6,-6,-6,9,23,53,7,4
37,14,6,9,-1,-8,-37,-10,4
-13,-1,3,-7,-3,7,26,16,4
34,9,6,7,0,-16,-57,-39,4
-14,-3,-2,-13,-7,-2,-77,14,4
5,0,0,9,3,0,-2,-6,4
9,5,10,8,-3,15,-17,-19,4
-8,-2,9,27,12,-3,8,25,4
12,0,-11,-22,-12,5,77,2,4
16,3,-26,-37,-7,-6,-76,-15,4
5,2,1,10,9,-3,-87,3,4
-10,-6,-6,-6,-8,-35,10,-12,4
-3,-6,4,15,-3,18,-29,-18,4
0,-4,5,5,0,13,54,34,4
21,-1,-5,-7,14,32,21,-1,4
25,3,2,6,-4,-9,-64,16,4
27,1,-1,0,4,-7,27,-37,4
3,4,5,20,-3,6,-13,-3,4
8,0,-2,-4,-7,-11,-8,18,4
-12,-10,-3,3,9,12,24,-79,4
37,2,-4,-15,-10,-18,-35,55,4
14,16,11,14,5,11,60,15,4
37,13,4,-10,5,5,-59,-30,4
53,-6,0,2,0,2,54,0,4
-26,-11,-15,-28,0,6,-9,2,4
12,1,9,16,5,-11,-13,-18,4
-39,5,12,9,-7,-1,40,22,4
-20,-3,-17,-58,-8,-21,-60,-35,4
-14,-7,-2,7,5,14,41,-2,4
-41,0,1,-6,3,2,101,-74,4
-2,-4,2,13,-4,6,47,-21,4
-10,5,-1,-23,4,6,85,33,4
2,5,10,30,0,14,-1,-22,4
-37,-5,4,11,-6,-24,37,19,4
-34,-14,-6,-19,2,16,10,-30,4
15,-1,-6,31,2,5,38,60,4
-6,1,0,-9,-3,-32,-122,21,4
65,9,3,-9,1,34,86,-4,4
8,-2,-7,-5,1,-22,-9,-16,4
-40,1,6,17,-1,-2,2,26,4
6,-2,-2,8,1,18,-37,-4,4
-14,-10,-5,10,-2,4,-61,2,4
7,0,-1,-1,-8,-31,-35,11,4
14,5,1,3,1,9,-28,3,4
-1,-1,7,6,2,-5,54,8,4
-11,-6,-6,-14,1,-1,-34,-6,4
-2,0,-6,-15,-3,13,38,14,4
-17,5,14,18,5,12,11,-14,4
-13,-4,-5,-11,-6,-13,30,-10,4
-18,-7,-22,-29,2,-3,-31,15,4
0,-3,-1,13,-3,-3,-33,1,4
-3,-21,-9,-14,-2,-3,21,-8,4
-1,1,5,3,5,14,40,-3,4
-5,0,7,12,-6,-14,35,28,4
8,4,1,6,2,7,-8,5,4
5,5,5,7,1,3,-27,3,4
-6,0,-3,-7,-2,-9,-10,-5,4
-7,-1,3,-2,4,6,-3,6,4
-38,-8,-4,-12,-4,-5,6,6,4
-15,5,3,1,0,1,-30,14,4
8,-2,-4,-9,1,-9,-8,-15,4
23,-1,-1,3,9,14,3,-13,4
0,-5,0,1,-9,-26,-72,4,4
13,4,-5,-9,-7,-8,0,5,4
-5,-1,-4,-5,-4,-13,-16,17,4
-10,0,9,12,-5,-2,27,5,4
-7,-3,9,21,8,9,-13,-11,4
-32,-10,-20,-35,-8,15,81,-18,4
15,0,-14,-12,0,-8,-13,-3,4
-2,2,3,8,-6,-23,-38,-2,4
-9,0,-2,3,-3,0,-13,-3,4
-8,0,10,20,1,-5,41,-6,4
-5,-5,2,7,-2,-1,-62,20,4
11,4,-4,-4,1,2,-28,43,4
48,7,4,5,10,17,27,-4,4
17,4,8,20,3,-4,35,12,4
-16,-3,-11,-44,-4,3,-11,-10,4
-17,-8,1,10,-2,-2,24,2,4
-1,1,-7,-24,-5,-18,-81,-1,4
5,4,14,18,-2,6,27,-2,4
3,2,-17,-17,-1,6,71,-18,4
-10,-2,1,19,-2,-18,-109,-7,4
-2,3,-17,-40,-1,9,20,7,4
1,-4,3,9,3,-5,-36,-11,4
-3,6,11,5,-3,10,53,-9,4
-10,-3,0,-7,1,-3,-28,-4,4
-10,3,2,16,3,15,52,-6,4
13,2,-6,-11,-2,-9,-31,10,4
-9,-1,10,25,4,-15,41,13,4
2,1,-2,-14,-4,14,41,-14,4
2,-6,-3,12,1,7,23,11,4
10,-7,-5,9,-4,-27,11,-5,4
4,-6,-3,15,-4,12,-7,16,4
-33,-2,8,25,9,22,-85,-27,4
12,-4,-16,-42,-10,-47,53,-5,4
4,1,-2,-4,3,14,-27,1,4
10,10,6,-5,-6,-10,52,42,4
28,7,1,-21,-7,-9,49,15,4
-16,-5,16,24,14,33,20,29,4
7,2,-4,-6,3,-5,-23,5,4
-17,4,0,-26,0,-13,-18,13,4
11,-1,0,19,-5,6,28,1,4
-14,-28,-5,-20,-4,-4,-55,6,4
8,15,2,12,-4,6,50,12,4
-12,-3,-5,-3,-4,-17,-106,-32,4
-12,-2,-6,-8,-2,-5,72,3,4
0,6,1,4,1,9,21,-21,4
13,2,5,11,2,-1,-31,-7,4
-2,-4,4,0,0,-17,-25,-27,4
-9,-1,-2,-9,2,25,29,-2,4
2,0,-1,7,-3,-8,-37,-2,4
2,-6,-6,-11,-7,-17,-52,6,4
16,1,6,30,1,7,34,-19,4
-12,-13,-15,-26,-1,-11,-1,-27,4
-1,3,4,48,4,10,56,5,4
-2,0,1,-38,-3,16,35,11,4
-13,-12,-28,-22,-8,-7,30,-6,4
13,0,8,23,5,-1,20,9,4
2,-1,-3,-10,-1,4,-40,-10,4
12,4,3,6,0,1,15,-6,4
5,-6,4,-2,-1,-13,-39,-14,4
-11,4,-1,-39,0,1,-21,12,4
-27,1,-1,-17,-3,0,112,5,4
1,-2,-5,-6,-1,-7,-113,2,4
9,5,8,5,5,29,4,11,4
5,1,-3,4,-16,-36,-76,3,4
11,4,2,4,9,-4,-16,-5,4
-8,-3,-2,10,1,17,62,-13,4
0,-3,-5,-6,2,14,-22,3,4
-3,3,2,6,8,-1,-59,-8,4
-3,-3,0,-2,-11,-8,65,0,4
-6,0,20,53,6,27,51,-5,4
-6,-3,-31,-74,-3,4,10,0,4
6,7,8,6,5,-6,-7,14,4
-8,5,25,34,5,0,3,-39,4
-6,-16,-61,-95,-5,-12,-53,5,4
3,2,14,53,3,1,67,-4,4
-6,-1,-18,-57,-8,-2,27,-1,4
-13,-8,-10,3,-6,1,-56,0,4
1,-2,18,27,-5,-16,-36,-41,4
5,9,13,24,-1,-12,40,3,4
-11,-1,4,21,7,25,38,-2,4
21,3,6,5,6,21,-51,-44,4
-8,-7,-9,-15,-6,-19,-51,-2,4
-3,3,3,3,-9,-32,63,12,4
15,4,8,18,0,1,-71,-6,4
-2,-1,-9,-22,-6,8,59,14,4
-21,-6,-2,-3,1,19,72,12,4
3,-4,5,11,-1,12,35,-6,4
-18,-2,12,29,-3,-29,-39,-13,4
8,3,-21,-50,-2,7,24,20,4
6,8,28,45,2,-24,-114,-16,4
-2,-10,-23,-8,-3,-8,36,-24,4
3,-4,4,-20,-4,14,72,8,4
5,-4,-26,-67,-3,2,-20,23,4
1,-2,-11,-9,-2,4,119,-10,4
-2,3,15,12,0,4,-76,-3,4
-3,-5,-3,-10,-3,-1,28,-1,4
30,5,8,15,0,-10,-111,-13,4
-5,5,10,19,5,6,-8,18,4
-7,-5,0,23,-1,3,54,36,4
12,-2,-10,20,10,16,-33,-29,4
-29,-5,2,18,-13,-43,127,30,4
9,-7,-10,-13,-2,-18,-27,19,4
19,2,2,-3,3,5,17,-25,4
1,-1,-5,6,-1,12,14,15,4
-14,-4,6,14,-1,2,-36,-1,4
19,8,23,21,4,-4,-4,3,4
-9,4,-18,-48,1,14,39,11,4
11,-16,-7,0,-8,-19,-6,11,4
10,5,-6,-5,1,-1,-49,-6,4
-12,1,12,23,3,10,64,-7,4
-7,-7,-12,-38,7,6,-82,-3,4
-15,-6,-21,-8,-5,-9,108,-5,4
11,-2,3,4,-8,4,-90,3,4
11,1,-6,-17,5,19,104,-1,4
-4,5,18,29,7,-10,20,-6,4
-13,2,0,-9,-4,-13,-111,17,4
-12,-5,-2,1,5,7,64,20,4
4,5,-3,-14,-12,-29,-63,-9,4
-30,-2,6,16,9,7,21,-26,4
1,-1,-4,-15,-7,2,48,-7,4
-10,-3,2,10,-5,-4,-13,-11,4
2,-3,-10,-12,2,10,-113,-12,4
14,3,5,9,1,15,48,15,4
-4,6,10,4,6,-9,-40,-9,4
-7,-1,9,10,0,0,51,-6,4
-9,-9,-11,9,-1,-2,-38,0,4
3,-1,10,-21,-6,-10,-45,3,4
11,-3,-35,-42,-3,10,60,4,4
12,7,5,30,6,0,-85,-3,4
-4,-2,-8,-39,-7,-19,16,2,4
-3,0,12,28,-9,3,51,28,4
-8,-2,14,17,7,9,-56,11,4
-6,-4,-6,-6,4,5,26,2,4
29,6,10,8,3,2,4,-23,4
-15,-7,-13,-3,-2,6,7,-4,4
-9,-5,1,-4,-13,-37,1,9,4
21,-4,-8,-1,2,3,69,-14,4
-4,4,4,5,1,12,-1,25,4
18,5,10,20,5,29,73,-17,4
2,-1,-8,-31,-7,0,-22,-9,4
-14,1,2,5,6,11,-1,8,4
-4,-3,-4,-10,-5,8,15,-2,4
-11,-7,-5,-4,-8,-25,-118,-5,4
4,3,15,48,11,11,30,-7,4
6,6,-5,-30,-3,-8,-22,-1,4
-10,-4,-16,-13,-2,20,76,9,4
-1,1,-5,-6,2,-12,-123,0,4
5,1,5,17,-1,-7,-73,-1,4
1,1,14,9,-3,-12,14,12,4
-3,-4,-6,-20,2,-6,-11,6,4
13,-1,-6,10,-6,-9,17,15,4
13,10,9,8,3,11,64,-15,4
-12,-6,-1,17,2,4,-49,11,4
-5,2,-3,-20,-6,-17,0,16,4
-1,-2,1,-13,-2,11,78,-7,4
1,2,-1,-13,5,23,23,0,4
15,10,19,17,-1,-17,41,-15,4
-33,-6,0,41,-10,-17,-28,-10,4
0,-9,-37,-62,-6,-25,-83,-13,4
1,-1,0,1,11,41,115,3,4
-3,-2,-10,-19,-5,10,-1,13,4
-6,-4,11,21,-4,10,41,3,4
14,8,14,18,8,-11,-75,7,4
6,4,-2,-2,0,-8,-18,-2,4
-4,1,2,5,0,-9,43,-10,4
-6,-2,-5,-25,1,2,20,-2,4
4,0,4,5,-1,19,-6,-7,4
-12,-4,12,35,-1,-12,-21,-4,4
5,2,-27,-63,0,6,-36,7,4
10,-1,-3,10,-5,-24,-75,-7,4
-16,-6,-1,2,3,22,45,-4,4
5,3,5,15,-7,-18,37,1,4
-9,-3,5,13,1,4,-27,-5,4
-6,-2,5,8,8,18,37,26,4
-3,-1,0,2,1,2,-52,6,4
-6,0,-8,-25,-11,-26,-73,0,4
8,-1,7,27,-2,14,12,-9,4
8,6,3,-13,4,-12,-7,1,4
7,4,-12,-10,-8,1,28,1,4
-1,0,1,6,13,21,13,0,4
1,-3,-13,-17,-7,-14,8,13,4
-7,-3,19,47,9,20,49,-21,4
0,0,9,16,2,-3,58,1,4
-4,-5,-14,-54,-8,-19,-7,-5,4
-6,-3,-7,14,-5,3,66,-1,4
3,-3,-7,-15,-1,14,-100,-1,4
-3,0,3,6,0,0,76,-10,4
4,3,4,13,-4,-7,34,6,4
-4,0,8,9,2,-2,-64,0,4
6,4,-5,-14,-4,-10,24,0,4
5,2,0,-7,-3,-6,-11,4,4
-1,-4,4,15,0,6,-21,-8,4
-9,-7,-1,-1,-3,-6,-14,-3,4
-27,0,-4,2,-2,0,-12,-25,4
2,-8,-2,-3,0,-3,-45,-21,4
-9,-6,0,11,1,4,42,1,4
13,1,-11,-33,-4,-2,-66,-14,4
14,2,1,6,2,0,119,-4,4
1,2,6,14,-1,8,42,-9,4
2,5,5,2,2,-18,-88,3,4
6,2,10,9,-4,9,108,14,4
5,-4,-15,-16,-3,10,-67,-10,4
-16,-5,-4,-8,-9,-58,12,21,4
0,-3,-8,-14,0,24,-59,-11,4
1,2,-2,-22,-12,22,35,6,4
2,12,15,28,32,0,40,10,4
-25,-12,-9,-2,-21,29,119,-5,4
-2,0,-1,7,-2,-6,-30,9,4
6,2,14,27,10,-9,-34,-13,4
15,2,-11,-36,-5,9,-15,-2,4
16,6,9,23,4,-1,-66,-1,4
-12,-8,-12,-13,1,-8,56,1,4
14,-6,-9,-6,1,5,8,16,4
9,-1,13,24,-2,-1,-23,-8,4
-17,-4,-17,-6,0,-11,-45,20,4
0,0,2,-22,-8,4,19,3,4
4,0,-5,5,6,-3,-61,-1,4
-20,-7,-2,2,-5,-10,26,-1,4
6,8,12,8,4,10,22,5,4
10,3,4,10,2,-1,-25,-7,4
-5,0,-3,-2,0,2,59,0,4
6,2,7,6,-2,-10,-28,11,4
3,0,0,7,6,17,-18,0,4
1,0,-5,-4,-9,-5,0,10,4
-8,0,12,15,2,-28,104,-14,4
-8,-8,-7,-11,-10,18,-119,1,4
4,4,-1,6,0,-26,-103,2,4
10,6,14,25,8,27,-7,-9,4
-3,4,6,13,8,-10,-41,12,4
-21,-12,-11,2,-26,-60,-58,-13,4
-7,-5,-3,-20,-6,11,102,-18,4
5,-4,-1,17,1,2,-39,3,4
-4,3,-9,-18,-2,-6,-66,-13,4
-5,-6,-8,-22,5,66,57,6,4
1,5,8,1,9,-86,-53,6,4
-16,-4,-2,-22,-26,-35,-15,-9,4
-6,-3,7,-5,-7,-30,1,-2,4
-5,-9,-20,48,1,30,-2,4,4
5,2,18,56,0,17,19,-9,4
7,0,-33,-76,6,33,57,8,4
4,-2,-10,-57,-7,-21,-90,-4,4
-2,-1,-4,-62,-5,-21,23,1,4
17,6,16,-6,10,34,-25,-6,4
-18,3,18,28,3,-23,13,-10,4
-1,2,12,15,-8,25,-9,-4,4
17,0,-9,-9,5,-15,-12,8,4
5,2,-10,5,-1,12,39,3,4
14,5,1,8,7,-1,-4,3,4
-6,1,-4,8,-10,-15,-74,-6,4
5,5,16,31,0,6,85,4,4
-16,-10,-11,-13,-4,4,3,-8,4
-10,-11,-2,8,1,-2,-21,4,4
-22,-9,-6,15,5,31,46,-2,4
11,11,6,5,5,-26,102,6,4
10,7,2,-12,3,-6,-61,3,4
-15,-3,-3,-7,-13,-9,-31,-12,4
13,2,-4,16,7,21,29,9,4
-16,-9,-11,-12,-8,7,46,-8,4
5,2,0,-18,2,14,69,6,4
11,4,14,39,14,6,88,7,4
-4,-3,-13,-26,-9,-23,0,-5,4
7,5,10,-6,0,8,8,-6,4
-2,-11,-25,-12,-3,0,25,6,4
11,0,5,17,1,4,24,11,4
-7,-4,-4,7,1,8,-14,-4,4
7,1,6,1,5,-1,-30,8,4
-7,-4,-6,-19,-6,-2,-44,3,4
2,0,-1,17,-2,-3,-31,5,4
3,2,-4,-11,-1,9,27,-4,4
2,-4,0,-1,-10,-25,-25,-5,4
-14,-4,3,4,-2,4,-25,-25,4
-12,-2,-2,3,-9,-12,-41,4,4
7,3,7,-1,1,-6,21,-3,4
-10,-4,-13,-25,-8,23,-15,-4,4
-1,4,7,4,22,-1,-30,9,4
-7,-5,-12,-32,-11,4,55,-17,4
-13,-7,-1,9,0,12,-32,-14,4
8,-1,3,2,-2,-5,1,8,4
5,1,0,1,-6,-16,-93,14,4
-15,2,12,15,5,4,17,-2,4
4,-1,-1,-7,3,5,92,32,4
1,6,4,-9,2,-9,-39,-2,4
-2,-4,-4,-24,-5,-2,18,6,4
16,-2,-13,4,-4,-2,5,1,4
-7,-7,-14,-25,-8,-11,1,-2,4
-8,3,4,18,8,14,-3,2,4
7,4,9,14,-1,2,-33,-1,4
-6,-1,4,-5,-3,-26,-9,-4,4
-1,4,6,16,5,11,-31,-16,4
8,2,0,-3,-3,-6,-12,6,4
-10,-2,1,4,1,21,18,-4,4
-5,-8,-10,-8,-4,-7,70,-8,4
-1,-3,4,15,0,-8,-22,11,4
0,-1,-4,-1,-2,-1,-15,2,4
1,0,-3,-3,-2,-5,66,-8,4
-2,2,0,-4,0,-1,-32,10,4
7,3,3,5,-4,-16,22,11,4
1,-3,-1,1,1,-5,-57,4,4
4,-3,-2,6,-6,2,42,2,4
1,4,5,-5,7,14,-31,7,4
-3,0,-1,4,1,0,53,-18,4
13,3,4,10,-2,-3,-1,4,4
4,5,12,17,3,2,-36,-8,4
-10,-12,-23,-63,-9,-10,74,-1,4
-6,-5,-5,18,0,3,-25,8,4
-5,-2,-4,-8,4,4,41,-1,4
-11,-8,-7,-8,-12,-13,-74,0,4
-2,11,13,28,10,21,22,-17,4
5,3,2,-6,-5,-18,21,2,4
-13,-5,-1,-3,4,18,54,-6,4
8,5,2,6,-6,-17,-54,11,4
-1,-3,-3,-3,-3,-2,24,2,4
2,-1,1,2,5,3,-64,4,4
-5,-1,2,0,-1,-2,10,-14,4
-32,-8,-3,1,-11,-31,-46,-8,4
15,1,7,8,5,12,18,11,4
4,-1,-8,-15,-2,6,-28,-10,4
-8,-3,-3,-1,-5,-19,52,0,4
12,4,2,5,2,12,-5,2,4
-5,-2,-5,-4,1,-1,-5,0,4
-15,4,19,27,2,-2,-53,4,4
4,-5,-31,-30,-1,2,-21,4,4
2,0,-2,-7,0,5,30,-4,4
4,5,5,2,6,-1,-16,-15,4
11,0,-9,-16,-5,-18,7,0,4
-2,0,1,-5,5,23,-40,-9,4
0,-4,-2,8,3,3,72,10,4
-22,-6,3,14,4,6,-92,-16,4
-10,-3,-4,-4,-7,-12,75,6,4
-2,1,6,13,-2,-13,-22,-4,4
17,3,-1,-2,7,18,56,-3,4
18,7,3,-4,1,8,42,2,4
-18,-10,-7,-6,-5,-15,-114,-16,4
5,-1,2,-4,-1,10,-36,18,4
-7,-9,-2,-6,4,4,75,-1,4
9,1,-8,-10,-2,-2,16,6,4
7,7,2,-3,6,13,2,1,4
2,1,4,3,-2,-11,15,-4,4
-3,3,17,20,5,9,-15,-2,4
-7,-8,-22,-46,-9,-22,-48,4,4
-4,0,3,10,-2,5,98,-6,4
-5,-3,-9,-1,0,-5,-24,1,4
2,4,-11,-11,-6,3,-9,-3,4
-2,-1,0,9,-4,-9,-12,8,4
1,-7,2,-1,3,19,12,17,4
-1,-7,-1,8,-2,7,29,-5,4
-7,3,9,5,3,-16,-76,-16,4
10,-3,1,10,0,8,96,-2,4
10,6,-4,-9,-3,-17,-28,13,4
2,3,11,7,0,-8,-40,-7,4
-7,-5,-9,-11,-9,22,85,10,4
9,6,5,7,2,-3,-59,10,4
-3,0,1,5,5,10,73,-11,4
-3,-4,-3,-4,-10,-15,-7,6,4
9,3,0,1,4,9,-24,6,4
1,1,0,2,0,-2,-8,-7,4
10,6,14,25,2,9,18,2,4
-7,-3,-4,-21,0,-11,-5,0,4
-6,-7,-9,-16,-1,-4,-5,-6,4
-1,0,0,2,0,-1,-23,1,4
18,-1,-11,-13,-4,-1,-33,-4,4
-8,3,11,24,-1,4,36,-13,4
-9,-11,-11,-27,7,-15,-73,7,4
-12,-3,4,18,-11,8,124,17,4
-2,1,-1,-6,-2,-1,-21,15,4
26,6,-2,4,-1,-10,59,1,4
-1,2,2,9,-6,-14,-60,9,4
6,3,5,7,4,-5,-31,8,4
13,1,-2,-4,-5,-18,-111,8,4
-4,-4,-4,-6,2,20,76,-7,4
15,4,3,12,-5,-4,0,-19,4
-6,-4,-2,-9,3,4,-1,-4,4
-4,4,3,1,1,2,-13,-26,4
-20,-4,3,8,-15,-12,-37,-1,4
7,1,-10,-26,-1,3,-8,-40,4
-25,-11,-12,-13,-7,-17,-20,-16,4
11,1,7,10,11,13,26,-3,4
8,2,4,11,-1,1,-5,8,4
-60,-1,0,-3,0,2,78,29,4
-6,4,10,7,23,1,-67,16,4
0,-10,-12,-7,-16,-4,74,-34,4
-3,3,12,19,-4,-6,-69,7,4
20,4,-6,-16,9,19,80,5,4
-3,3,3,7,-4,7,11,-8,4
-8,-1,-1,-3,3,-16,-11,8,4
-42,0,-5,-9,-6,8,15,7,4
2,-4,0,6,-15,-16,-23,-10,4
6,2,3,3,3,-11,-17,5,4
-18,-11,-10,-13,-2,11,34,-5,4
2,-4,-5,-2,1,-11,-6,-5,4
4,7,17,20,5,10,10,8,4
5,-3,-19,-46,-1,11,1,-7,4
-15,-3,3,8,-5,-16,-27,13,4
8,-2,2,6,12,5,-5,-4,4
15,-3,-17,-33,3,16,103,8,4
10,2,13,24,-7,-10,-76,-7,4
8,1,-19,-22,3,20,-12,10,4
7,-3,-2,-15,-7,-24,23,-8,4
27,3,4,16,1,2,-48,4,4
15,0,5,8,-7,0,46,-21,4
-16,0,5,-2,1,1,20,13,4
41,10,1,-3,4,-8,-57,-18,4
1,-5,-2,10,-4,12,-12,8,4
-13,-3,-4,-10,2,2,-18,11,4
5,2,5,9,2,-15,18,-4,4
-5,-2,-6,-7,1,2,14,17,4
-5,-1,1,6,-2,-1,30,-9,4
-1,-4,-3,2,-2,13,-66,-3,4
2,2,-2,-1,-2,0,68,-9,4
0,-3,-5,-5,2,5,-28,0,4
2,1,1,2,-1,-10,-48,3,4
-23,-8,-4,-2,-2,6,119,23,4
6,-2,3,4,-2,4,26,1,4
-1,0,-6,-8,-1,-9,-14,-2,4
-1,0,7,13,0,-7,1,12,4
6,1,-6,-2,-3,8,27,8,4
-1,3,0,0,-1,-23,-87,-12,4
1,0,7,13,3,14,22,3,4
-20,-3,-11,-3,-6,-1,-8,-20,4
6,8,13,8,1,-9,-40,-3,4
-10,-5,-9,-15,4,28,64,24,4
-11,-6,8,20,-8,-2,81,5,4
-4,-9,-18,-51,-6,-5,27,-10,4
-3,-3,-3,4,-1,-8,-18,-16,4
2,-1,0,3,0,-3,2,6,4
12,6,4,7,2,0,-36,-5,4
-6,-1,7,14,7,-3,-9,4,4
4,-3,-2,-2,-8,4,10,-9,4
-1,0,6,5,-2,-6,-60,-7,4
-9,-4,-15,-21,-4,-4,0,-4,4
13,2,5,10,-2,5,13,1,4
40,8,-2,-9,2,-1,-24,29,4
2,0,14,25,1,-5,-9,-11,4
-4,-4,-4,-10,1,0,5,-2,4
-10,4,-15,-31,-4,8,95,8,4
-8,-21,-11,-8,-5,-9,-42,1,4
-5,-6,0,3,-7,1,-1,-26,4
15,6,3,20,5,6,30,-5,4
3,0,7,-6,1,6,83,10,4
-14,-4,-7,1,0,-4,-10,-5,4
9,4,-2,-7,0,-6,-60,-1,4
-2,0,0,-6,4,11,-4,-2,4
-5,5,10,23,0,-10,-83,-2,4
-23,-7,-3,-2,3,-2,33,1,4
-11,-1,-5,-19,-2,10,-48,12,4
0,3,-2,-6,-3,-8,-12,8,4
-1,-3,1,11,-1,-6,-13,7,4
-8,4,18,43,2,-10,1,-8,4
6,4,-3,-24,-6,-3,-33,2,4
1,-5,-23,-30,-3,12,31,4,4
2,-3,0,12,4,-4,-73,-1,4
-11,0,-3,-8,-2,-9,-25,-22,4
19,0,9,21,-6,-1,-23,-2,4
21,5,-1,-1,-2,-15,49,-23,4
-9,-4,-2,8,-4,3,-4,-6,4
2,1,-2,-7,3,-2,16,13,4
5,-1,-3,0,1,-2,37,-21,4
-8,-7,-2,-6,0,5,-18,-9,4
0,0,-1,5,0,-6,-17,-2,4
13,4,2,-7,-4,2,-8,2,4
-12,-2,-5,-7,0,8,89,0,4
-8,-6,-1,2,-3,-15,-72,10,4
6,0,0,3,0,-3,48,-8,4
-4,1,-1,-1,-6,3,52,-8,4
2,-2,-7,-2,-2,4,8,2,4
-6,0,3,-12,-1,0,-34,-3,4
5,0,1,13,5,-9,-63,2,4
7,2,-3,-21,13,14,46,1,4
0,1,2,14,8,12,37,3,4
-8,-2,3,5,-10,-15,-76,-14,4
1,-1,-4,-7,-10,-8,10,1,4
14,5,3,8,-4,1,-8,14,4
1,-3,0,8,7,3,4,-24,4
-13,0,-1,-9,0,4,93,-3,4
17,5,4,13,-7,-8,-96,1,4
-8,3,-12,-36,-9,-18,-30,-17,4
7,-19,0,7,-1,4,1,12,4
-27,-8,-3,-8,1,13,20,21,4
-5,-5,-4,8,2,-26,-42,-9,4
-2,-2,0,-4,-1,15,53,-3,4
0,3,-10,-11,-2,-6,-17,4,4
14,4,5,1,6,10,15,3,4
-4,0,2,6,-1,6,44,8,4
5,4,6,21,-2,4,-49,-7,4
-9,4,2,-8,0,-4,5,3,4
4,-3,-5,8,-2,3,-39,2,4
-5,-1,-2,-17,2,2,34,2,4
0,-6,-5,-3,-8,-14,-48,0,4
-6,1,0,1,2,21,56,4,4
2,-4,0,11,9,2,18,0,4
-3,1,0,-11,-5,2,23,-1,4
-1,0,-2,3,3,-7,20,9,4
16,-1,-2,3,-3,0,-51,-38,4
2,-1,9,28,-6,-27,-3,19,4
-11,-6,-13,-30,6,31,55,-6,4
-9,-3,9,24,0,-14,-60,-4,4
-9,-1,-17,-24,-8,-14,-2,10,4
17,8,19,26,9,20,17,4,4
-13,-8,-15,-24,-9,-22,-15,-13,4
-9,-4,-2,9,2,11,30,8,4
-4,1,-4,-22,-3,0,10,9,4
5,1,-1,1,-3,-4,-17,-7,4
16,6,13,18,1,4,-1,9,4
-6,-1,1,-6,2,3,-20,-4,4
-10,-2,5,7,-4,-13,-3,8,4
-5,1,-6,-13,0,1,10,-9,4
12,2,3,5,1,13,28,22,4
6,1,-3,-6,-3,4,36,-3,4
-12,-3,0,4,0,-9,8,8,4
1,2,-4,-5,-5,6,47,14,4
-13,-9,-2,4,-2,0,-90,13,4
-8,-4,-2,-1,3,7,35,-29,4
6,6,8,21,0,-3,-24,19,4
0,-3,-10,-38,-11,-19,71,5,4
4,3,-1,13,2,0,-31,-15,4
9,6,8,-6,7,16,37,2,4
-11,-5,-9,-6,-5,-9,-12,-22,4
-64,-18,-9,0,-4,-3,1,-3,4
7,-8,-2,0,3,6,32,-9,4
26,7,3,4,-8,-4,35,2,4
-24,12,15,18,8,3,-26,-30,4
-5,-5,-12,-26,-1,3,-32,10,4
-8,-2,6,30,-2,-3,-11,-2,4
4,-7,-17,-47,-3,-7,-24,0,4
18,12,7,12,-3,-2,25,19,4
8,-24,0,3,2,6,54,2,4
-5,17,5,4,1,2,-96,-7,4
-12,-28,-3,7,-6,-16,42,14,4
15,9,3,-4,3,10,-26,7,4
3,5,3,11,-1,-13,36,-8,4
2,0,0,-9,-5,-5,-61,-1,4
-4,8,-2,2,-2,4,18,6,4
0,-9,-1,-7,1,-6,-34,4,4
-4,-5,-7,-2,-2,2,-8,-6,4
-24,-12,-3,-13,-1,0,42,-50,4
18,19,3,9,4,6,-42,-13,4
-5,-4,-6,-8,0,-4,1,4,4
12,14,7,6,0,7,-58,-5,4
-7,3,3,-4,-4,-11,38,8,4
-15,-8,1,6,0,19,0,-2,4
1,-9,-7,-3,-6,-28,-5,11,4
6,4,2,4,0,4,11,-5,4
-13,-4,1,-12,-3,-5,78,6,4
9,0,-2,29,0,-10,-96,3,4
4,-8,-21,-53,-6,7,40,14,4
14,7,3,12,3,-2,-1,5,4
7,5,2,-5,-2,3,58,13,4
-2,-1,3,11,-1,2,28,4,4
-29,-8,-1,5,-5,-3,-32,1,4
13,3,3,1,0,-3,-91,19,4
-2,-5,-4,5,5,5,60,2,4
0,2,4,-6,-1,-15,-14,4,4
3,-2,-4,-2,-2,-5,-70,-15,4
-2,2,9,8,-1,7,77,3,4
5,-3,-10,-5,-3,-1,10,9,4
-6,0,-2,-11,-2,-4,5,3,4
-2,-3,1,8,3,10,71,0,4
-5,1,1,4,2,-1,-35,-13,4
12,7,17,45,3,-2,-13,-1,4
0,-5,-24,-77,-5,3,10,-3,4
9,11,6,20,2,-1,28,4,4
6,1,1,-8,3,-1,3,-16,4
6,-1,0,-4,-1,1,53,19,4
0,-4,0,8,-1,13,68,16,4
9,0,2,0,-5,-11,15,13,4
4,2,-2,-3,3,4,-8,-2,4
8,2,4,0,3,15,84,-2,4
-1,4,5,14,-1,-15,-62,-21,4
3,-10,1,3,0,12,58,-9,4
-13,-2,-5,7,2,-3,-17,3,4
-23,-28,-20,-51,-19,-13,39,-10,4
8,10,2,11,1,7,-80,-2,4
12,-6,9,20,3,4,63,5,4
-1,-3,-8,-29,-1,-1,2,-7,4
8,5,-4,16,4,-5,-71,1,4
-9,2,-6,-22,-6,-10,14,-6,4
-1,-1,1,4,-1,-1,-28,0,4
-7,1,-2,7,-1,7,-16,3,4
0,10,0,-19,0,-3,-40,2,4
-2,-16,-2,14,0,8,39,3,4
5,5,-1,5,2,-15,-23,-5,4
-7,-2,-3,-8,-5,-4,-6,4,4
8,0,6,16,3,1,-16,4,4
-39,-7,3,8,4,-8,-15,-17,4
-3,-1,-2,-16,3,23,94,-5,4
-9,-5,1,10,-9,-17,-85,-14,4
15,4,-1,4,-4,-9,29,10,4
-5,-1,-2,0,0,-3,-29,-13,4
6,5,-3,-1,2,12,4,-1,4
6,-1,1,8,-2,-6,47,-15,4
8,7,0,-10,4,9,-11,4,4
-3,-5,-4,-4,-4,-11,1,7,4
-1,-1,-3,2,-2,-5,-39,2,4
-4,-1,12,36,3,10,-2,0,4
0,-7,-6,-14,2,-9,-66,-13,4
3,-1,-10,-21,-6,-1,22,8,4
-16,-2,-4,-11,-3,-4,-26,-9,4
22,7,-3,-10,-2,-3,8,18,4
1,5,10,16,10,27,59,-8,4
28,6,13,28,0,-23,-48,3,4
6,1,0,-4,2,11,-18,-2,4
-1,-1,-2,-13,1,-11,54,18,4
14,5,3,11,-3,1,21,-27,4
-4,2,0,-4,0,9,-11,7,4
-6,-6,1,-3,-3,-6,18,1,4
-17,-5,-4,-14,-7,-8,-48,-26,4
-15,-7,-6,-7,-2,0,-62,16,4
-2,1,-2,-4,-1,-5,49,-4,4
5,4,2,2,-4,0,-17,0,4
3,9,6,3,5,6,-9,6,4
-7,-6,-7,-8,-5,-6,-33,-2,4
-2,1,3,4,0,-1,-11,-2,4
-17,-2,9,23,4,-5,-16,6,4
6,2,3,-14,4,13,-11,8,4
-10,-7,-14,-7,-5,-10,29,-6,4
-5,-10,-20,-24,-1,9,2,8,4
-1,0,-11,-4,-6,-3,35,-7,4
10,-4,-1,1,-3,8,9,0,4
-14,1,7,8,8,5,-29,-12,4
20,0,7,16,2,12,87,-30,4
-7,1,-2,-4,-3,-6,-5,24,4
6,-3,2,7,1,-15,-54,-15,4
9,-1,-2,-6,-10,-23,-59,19,4
-14,-4,-3,-4,-7,-19,17,2,4
-6,2,2,-3,0,18,20,-7,4
0,4,-2,0,0,1,18,7,4
-7,-10,-7,-10,2,-7,-29,-12,4
1,5,4,7,4,5,-30,16,4
11,2,2,-2,-1,-6,-28,-5,4
-3,-1,-3,-8,-1,4,39,-7,4
-12,13,1,-1,-1,-5,-17,-4,4
0,-26,9,21,3,4,7,9,4
-4,-4,-6,-10,-1,-6,-52,-8,4
2,-3,-12,-11,-2,-8,20,3,4
8,0,-5,0,0,21,102,8,4
-4,10,7,19,-4,-7,-17,-7,4
-2,1,0,-15,0,-9,82,0,4
0,-2,-1,5,-3,2,19,4,4
0,6,6,0,1,3,-24,1,4
-2,7,3,6,-1,5,52,3,4
5,-2,0,1,0,1,-50,1,4
-7,3,-2,-1,-3,-3,-26,-5,4
-7,9,2,-1,-1,-5,-8,-6,4
-1,-29,-5,-8,4,4,7,7,4
1,2,-2,0,-3,-9,-38,0,4
0,6,4,-9,-1,4,20,5,4
-2,3,2,8,1,0,-14,3,4
1,-7,-2,-4,1,-2,-11,2,4
-1,-7,-5,-1,-3,1,11,-1,4
-4,-2,2,5,-1,4,6,4,4
5,0,5,15,3,11,45,-1,4
-2,10,-15,-25,-8,-15,-52,0,4
-2,-8,-6,3,5,8,61,4,4
-6,-3,-2,-5,-8,-15,-4,9,4
7,-6,3,11,5,3,20,13,4
-4,2,2,-2,-6,15,83,9,4
-5,4,3,3,4,7,-6,3,4
23,26,1,0,-1,0,-21,-5,4
2,-27,-8,-11,-4,-13,-42,12,4
-28,-4,-1,5,3,3,10,-3,4
-16,6,0,0,0,-2,-50,11,4
0,-17,0,14,3,4,-45,9,4
-15,-7,-6,-6,-8,-10,-31,-18,4
10,12,1,25,0,-7,-11,-1,4
-8,5,4,-28,2,12,42,-4,4
-15,-22,-10,-63,-12,-26,46,-20,4
18,7,0,-24,-2,7,-24,7,4
1,-6,1,-15,5,-2,-41,-1,4
10,10,-1,10,0,-1,15,-4,4
2,7,2,8,6,9,9,6,4
-1,11,4,22,0,-1,-4,0,4
3,2,1,-9,0,0,-2,8,4
-1,-8,-2,24,-7,-11,-42,-4,4
-7,-1,-2,19,2,8,32,-7,4
-2,2,0,22,-2,-2,16,1,4
0,7,-1,14,-1,-3,-8,2,4
14,-1,1,9,-1,-4,10,-4,4
-3,-10,-3,116,1,0,-28,-1,4
6,6,6,90,1,2,27,6,4
0,9,-3,33,3,1,-39,-5,4
6,-9,-2,-32,-6,-7,69,4,4
-6,3,-2,-64,-2,10,59,-12,4
-9,-3,-2,-51,-3,-13,-64,7,4
-9,1,3,-32,-3,-5,-44,-3,4
0,-5,0,-18,5,0,47,-7,4
6,13,-1,-28,0,-8,-111,-3,4
-5,-8,3,-20,-2,-4,47,13,4
4,-8,-10,-34,-4,11,25,7,4
4,6,1,-2,-2,-8,-72,-9,4
9,-4,2,2,-2,3,28,9,4
-12,4,-6,3,0,1,0,-3,4
-11,-6,4,2,-2,4,53,-2,4
8,-2,0,0,4,-1,-91,-3,4
-22,2,-1,-6,-12,-4,110,1,4
2,-23,-6,-21,1,5,-32,-3,4
15,8,6,4,2,-1,-5,-1,4
5,3,0,15,0,16,84,-4,4
-8,-4,2,-17,4,-1,-116,-6,4
-12,-2,-2,-25,-2,5,91,-5,4
-35,-5,-4,-1,-5,-16,-43,-12,4
-3,-7,0,3,-1,-6,-24,0,4
6,-2,-2,4,2,3,3,6,4
12,15,3,-2,-2,2,25,-39,4
17,4,-1,4,-1,0,35,11,4
-7,-12,-9,3,-2,-8,-6,0,4
-13,-12,-1,8,4,12,-12,8,4
0,0,-4,4,-4,-10,-18,1,4
5,8,-2,1,-2,-11,-54,-10,4
-2,17,2,11,-2,3,11,-7,4
17,-22,-6,14,1,1,5,9,4
4,-4,0,4,1,9,79,7,4
-9,-5,1,3,0,-1,14,-4,4
-13,-6,4,6,-1,-3,28,-3,4
0,3,0,-13,1,6,-7,-4,4
-1,2,5,12,-3,-13,74,33,4
20,2,-3,-32,3,11,43,-28,4
-2,2,3,10,2,3,35,5,4
-1,26,1,-13,-4,-6,11,-1,4
6,-39,-15,-19,-3,-9,-63,3,4
-6,11,-6,17,-1,1,-3,4,4
-5,-23,-8,-13,-4,-11,63,6,4
-11,2,4,2,4,0,5,-12,4
-5,6,-4,-21,-2,-4,-20,1,4
8,6,6,7,-1,2,-18,7,4
3,3,1,-5,-2,2,-38,-7,4
5,-1,-2,1,0,-7,-5,9,4
-4,8,4,-10,0,-1,-36,-14,4
3,-8,0,-7,2,4,29,6,4
7,11,1,-2,-1,-7,-94,4,4
-12,-24,-8,-36,-5,9,-4,-8,4
-1,10,7,4,-1,6,-4,2,4
9,-6,-3,-25,2,10,25,7,4
-1,-3,-4,10,-3,-6,25,9,4
-9,2,2,23,-1,4,3,-8,4
-12,-4,1,20,0,-5,-25,-2,4
3,2,3,20,-3,-5,53,6,4
15,18,5,17,3,9,-23,-33,4
-8,-36,-7,8,0,-7,-6,27,4
-3,16,1,2,-1,-4,12,-1,4
-1,-15,0,12,0,-1,-4,6,4
-5,-9,-2,-9,-1,-1,-10,7,4
14,22,9,2,4,3,-33,-18,4
-8,-9,-7,-7,-3,6,65,-20,4
-15,5,-7,-6,-8,-20,-94,9,4
10,11,-6,-7,-2,6,60,30,4
-12,-13,1,19,1,-8,-16,0,4
12,4,1,-12,3,3,-15,12,4
8,6,-3,-17,0,2,40,-9,4
-9,-11,-2,-2,0,8,20,-5,4
4,7,-2,-5,-6,-16,-30,30,4
1,0,3,11,4,4,-70,-6,4
-3,-6,0,11,0,-1,-9,-4,4
7,3,9,11,0,-1,57,5,4
-5,9,9,46,-3,-6,-15,-15,4
5,-14,-21,-77,0,7,26,-17,4
-4,-4,-3,4,-3,-8,-32,-10,4
-9,-17,-1,4,-1,-7,-51,3,4
9,-7,8,17,1,16,69,16,4
4,4,-5,-4,1,0,-1,26,4
3,2,0,-4,-1,-2,-20,-1,4
-23,-1,3,-6,-2,-10,-55,-19,4
0,0,-4,-17,3,3,71,0,4
3,-1,6,11,-2,-4,-54,-17,4
-5,-10,-3,-7,0,4,43,-1,4
-7,8,-1,-2,-5,0,56,13,4
10,14,-2,-14,-1,-2,-22,2,4
-15,-23,-6,10,-5,-3,122,-29,4
9,1,3,11,0,-4,-18,9,4
-3,-3,-2,-3,0,-2,-14,-11,4
7,3,-1,-6,1,1,28,1,4
-1,22,8,18,2,5,-23,10,4
-6,-19,0,9,0,1,26,1,4
-4,-13,-11,-14,-1,1,-13,9,4
3,3,-3,26,1,3,-25,-5,4
8,11,-5,-37,-1,-7,-77,22,4
-9,2,-1,10,0,5,-4,-16,4
0,9,0,-8,1,-3,-26,9,4
-8,-18,-18,-6,-5,-7,6,5,4
-1,0,9,26,-3,-4,-13,-7,4
0,9,0,-15,-1,2,15,-10,4
10,-1,1,-5,2,8,40,13,4
-1,7,2,-9,-4,-14,-54,-17,4
7,-5,-1,9,-1,-1,4,-24,4
9,13,3,-2,6,18,51,28,4
-8,-2,6,6,-9,-25,-85,21,4
4,3,-3,-6,2,-1,-16,-47,4
-2,-17,-7,3,1,-4,-11,-5,4
11,3,1,-4,-4,3,3,13,4
2,4,1,9,3,8,-22,-17,4
7,4,-1,-4,0,6,30,18,4
-4,9,3,-7,-5,-4,-1,1,4
4,2,4,11,0,-5,-34,-13,4
-3,9,-3,-11,-3,-5,15,-5,4
-14,-8,0,-4,-2,-3,-17,-10,4
2,1,2,1,2,8,12,25,4
-16,-3,1,-5,-2,-2,8,3,4
7,-5,-2,-3,1,-2,-17,-11,4
15,11,1,-11,-4,-8,-49,11,4
0,-5,5,14,6,8,2,10,4
-6,0,-9,-6,-6,-10,3,-5,4
4,3,-4,-5,-1,13,95,-12,4
-11,-11,-2,-2,1,-7,-9,-6,4
6,13,4,10,3,5,24,17,4
4,0,0,-11,-6,-14,-58,-12,4
4,0,-4,-4,-2,-5,4,-15,4
8,7,2,-5,2,18,33,-5,4
-17,-10,-2,4,-2,-21,-23,-18,4
0,-4,4,5,2,18,6,11,4
4,-4,-10,-18,-7,-12,-59,13,4
-6,-4,6,-1,2,8,61,-13,4
-12,-7,-1,-2,-1,-5,-26,-20,4
4,-3,-7,-35,-4,-4,33,2,4
0,3,3,24,1,2,-1,4,4
-3,-2,-5,-1,1,-1,-14,6,4
3,0,-11,-17,-2,3,10,6,4
-5,-1,-4,-6,-2,-3,41,3,4
3,-6,5,7,4,4,26,11,4
-8,1,0,5,-1,-6,-75,12,4
-13,-4,4,18,0,-3,-13,-3,4
0,2,3,6,3,5,55,0,4
-8,0,-2,1,-3,-4,-95,-16,4
-8,-16,-1,1,-2,3,63,13,4
16,20,-1,-8,-6,-8,-3,4,4
-1,-28,1,11,3,-2,-54,7,4
-2,-1,1,3,0,4,33,9,4
-4,7,2,-7,2,2,50,5,4
0,0,-2,-5,-1,6,-15,7,4
10,1,0,26,3,5,111,-10,4
-2,-6,-7,-7,-6,-16,-78,-19,4
0,1,-1,-13,-5,-2,-33,5,4
7,-7,-12,-11,0,18,49,18,4
6,15,8,13,1,-5,-39,1,4
-4,-2,0,0,3,8,39,32,4
6,1,6,13,2,-4,-21,3,4
-3,18,-1,-8,-4,-9,-20,-6,4
-8,-37,-6,2,-2,4,-20,0,4
-5,3,3,3,-2,-1,-26,-8,4
0,1,-4,-21,-4,-6,7,30,4
7,-4,7,12,-2,-5,-27,-25,4
-6,8,-3,-5,0,1,41,8,4
-32,-5,0,-2,-4,-10,5,-41,4
-5,-3,-2,3,-5,-5,-43,-6,4
14,21,2,1,-1,-6,29,8,4
15,8,2,-2,-4,-12,-82,18,4
30,4,2,0,4,12,81,3,4
-6,5,-5,-5,1,-1,-26,-30,4
-7,-13,3,1,5,6,-27,21,4
-21,5,-2,-3,-2,-2,37,6,4
-4,7,12,26,-5,4,8,-8,4
-16,-13,-11,-26,-4,-7,-13,29,4
14,-6,5,26,1,3,-8,12,4
-7,8,-9,-61,3,4,-21,-2,4
-4,-3,0,0,4,2,4,3,4
4,-7,-2,8,0,4,14,-2,4
-1,-7,11,25,1,-2,-23,-3,4
-3,10,-3,-5,-4,-11,-39,-9,4
-20,-1,-7,-10,-3,-1,-7,46,4
-10,-1,1,5,0,9,28,-10,4
1,-1,-4,-5,1,-4,-9,-1,4
5,3,5,22,1,1,-25,-24,4
15,6,-1,-10,1,4,32,12,4
-13,-10,-4,6,0,1,91,-11,4
-19,-13,-7,-11,-7,-21,-41,-13,4
-7,12,-2,3,-7,-11,-38,4,4
6,-5,4,1,5,9,35,15,4
17,1,3,-1,1,2,-6,-13,4
3,8,-3,-13,-2,2,17,-13,4
-4,-5,1,6,3,0,-14,-7,4
4,1,2,11,-1,-7,-28,-2,4
-2,8,-1,-5,-1,4,-1,-31,4
-8,-12,-1,-6,-5,-10,15,-2,4
11,-10,-6,18,-2,5,-4,12,4
5,2,-4,-17,-3,-5,-20,-17,4
5,-13,0,7,0,-1,-1,-5,4
3,4,-1,10,-1,4,22,5,4
2,4,4,4,4,7,92,-32,4
7,-11,4,3,1,-8,-69,-10,4
6,7,-10,-8,-6,-1,-41,7,4
-3,-4,-4,-9,-1,-4,70,0,4
8,-8,-2,4,-1,4,27,13,4
-9,2,-2,-1,1,1,-11,-20,4
-6,5,3,-2,2,4,17,2,4
-9,-6,2,8,-3,0,-14,-15,4
5,10,2,-10,2,5,-5,15,4
-7,2,-4,0,-8,-7,-23,10,4
18,14,-5,-11,-3,-15,-49,7,4
1,-30,-3,8,1,9,50,-29,4
-1,0,3,2,0,-7,-105,-1,4
20,2,1,-3,1,10,35,-16,4
-6,0,1,21,-1,-5,19,23,4
5,6,-3,-15,5,7,37,-1,4
-10,-4,-3,-3,-4,-7,-46,11,4
13,-2,-6,-6,-1,4,27,0,4
-12,7,6,0,-5,-6,43,7,4
5,-7,-2,-5,5,7,-9,-1,4
-1,-6,-3,-4,-2,-4,-12,0,4
-1,1,0,0,-2,0,-6,13,4
14,-1,1,0,1,-1,24,5,4
-7,7,2,-3,-3,-6,-38,1,4
-3,-3,-4,0,0,-2,16,-34,4
-9,-6,-3,0,-1,-5,-12,5,4
0,0,2,6,0,2,20,-13,4
6,27,2,1,1,2,-50,2,4
-10,-53,-3,-2,-3,9,91,24,4
-10,-3,-5,-4,-8,-16,-70,-20,4
8,2,-5,-10,2,-8,-50,-11,4
-25,0,-4,-8,-2,7,74,31,4
15,18,0,3,0,-4,48,-4,4
-1,2,5,13,6,8,17,1,4
7,-14,-2,-4,-2,4,38,5,4
-11,-9,2,16,-1,-8,-3,35,4
14,14,2,-7,0,-2,-27,0,4
-2,-9,-3,-11,-1,4,11,-38,4
14,10,4,5,0,-3,-31,-7,4
-1,-3,1,-6,-4,-3,-4,-31,4
4,9,6,5,-1,-3,-14,-11,4
-2,-5,-7,-5,1,0,15,13,4
-35,-13,-12,-11,-2,-3,-16,25,4
43,-15,-7,-1,12,19,-20,10,4
-10,13,-1,-4,-5,-15,59,14,4
-9,30,9,8,5,6,10,-90,4
-8,-23,12,11,1,-12,-98,12,4
-24,-14,-10,-8,-13,8,100,33,4
-20,-3,-10,-14,-2,-2,-87,-37,4
13,0,5,7,7,13,51,85,4
3,4,-2,7,1,-19,-59,-32,4
1,31,10,5,1,1,10,-8,4
0,-17,-2,-1,-2,-2,-18,27,4
3,1,-2,-3,-4,-5,18,-9,4
-2,0,1,0,1,10,37,-13,4
15,5,2,-3,-2,-8,-65,12,4
4,10,1,10,-3,0,3,-14,4
-9,-12,-4,1,5,0,-14,28,4
5,6,-4,-15,-5,1,70,-3,4
-10,-13,-10,-9,-8,-13,-24,-37,4
7,4,3,5,2,10,5,4,4
-4,-11,0,-1,-2,-11,-54,-39,4
-9,-1,-3,0,2,8,83,27,4
1,2,1,-2,-2,-6,-92,5,4
-7,-3,-1,5,4,3,18,-11,4
-4,0,-1,-8,-5,-8,-33,-10,4
0,-2,-3,11,1,16,80,18,4
-8,-4,-5,-23,-2,-8,23,-5,4
1,8,7,10,4,2,3,6,4
13,0,-7,1,1,1,-14,29,4
5,9,-2,-21,-3,0,-6,-37,4
10,-1,2,15,3,-1,1,4,4
-6,-2,1,0,0,-1,-27,2,4
-22,-3,0,0,0,3,43,21,4
-4,-1,-2,8,-3,-2,-35,14,4
-13,-3,0,-6,4,10,36,8,4
1,-1,-4,-12,-5,-2,-68,6,4
0,5,-1,1,0,2,-19,-1,4
8,-2,-1,-5,-6,-14,-52,-37,4
-2,-3,-3,-1,-7,-4,4,8,4
-5,12,-2,3,-1,1,35,-25,4
-7,-27,-8,-9,-4,1,-3,5,4
-11,-1,6,18,9,8,20,-6,4
6,11,11,1,2,-1,-11,4,4
7,-10,-18,-26,-5,-8,-10,-15,4
7,9,5,12,-1,0,14,-14,4
-13,-16,-9,-7,-1,0,-21,0,4
11,11,9,23,1,-3,12,3,4
-4,-19,-15,-54,-9,0,-2,-6,4
22,1,2,7,1,-2,18,-7,4
24,4,3,4,-5,-5,-16,6,4
0,0,-6,0,6,2,-27,4,4
9,4,7,19,3,-1,26,16,4
-14,-2,-1,-1,-2,2,15,15,4
-3,7,2,-3,-1,3,0,-1,4
14,-2,-4,-2,3,7,10,-9,4
-19,-1,3,15,0,-3,11,21,4
-5,-2,-4,-8,-5,-8,-23,11,4
-5,2,1,-1,2,5,53,6,4
-3,1,0,-7,0,-5,-90,-2,4
-3,5,-1,11,3,0,19,7,4
0,-14,-8,-15,-2,0,52,10,4
3,0,-3,-14,-2,-6,13,15,4
-1,-6,0,8,0,2,15,5,4
4,3,6,8,-1,-1,0,-22,4
-7,13,-2,2,1,-7,-37,-24,4
15,-22,0,5,1,3,57,14,4
1,1,-1,-7,-5,-10,-40,-12,4
-6,0,-1,8,4,3,67,8,4
9,-3,-3,-5,2,-6,-70,3,4
-5,3,0,-3,0,5,10,-8,4
-16,0,-2,-4,-3,-4,18,-6,4
24,-4,3,4,0,2,-2,-10,4
3,6,3,3,0,2,22,32,4
8,6,1,-2,0,-2,-43,2,4
20,2,-3,0,-5,-5,21,0,4
1,5,0,3,-1,-4,-31,-7,4
-12,-8,-1,-4,-3,3,14,-17,4
-8,-2,-10,-4,-3,-7,-32,12,4
-2,6,4,13,7,8,2,-5,4
0,1,-3,-16,-2,12,62,30,4
-4,-23,-2,6,-4,-19,-63,5,4
-2,-2,-1,-6,-2,-8,-77,-15,4
-11,-4,-7,-1,-1,4,43,0,4
2,2,1,7,0,-5,-31,-3,4
0,6,-1,-3,1,8,46,10,4
12,4,2,4,-4,-4,1,-10,4
4,-5,-5,-7,4,1,10,12,4
-16,0,3,6,1,1,-9,-16,4
-6,-2,-2,-3,-4,-10,20,5,4
-8,-3,-2,2,1,1,2,38,4
9,2,-1,-3,-4,0,0,13,4
11,-3,1,-1,-3,-1,0,-6,4
-10,2,2,1,0,1,-14,-7,4
-13,4,4,15,1,3,23,4,4
-2,3,-1,-16,-5,-7,10,-8,4
-10,-4,8,19,2,-7,-70,-9,4
6,6,-12,-32,-3,8,43,-18,4
7,-3,-1,2,-4,-11,32,-3,4
3,-17,-3,-1,6,15,40,-12,4
16,9,2,23,-5,-23,-104,2,4
22,7,3,5,3,5,25,-38,4
-16,5,2,4,4,5,32,-19,4
-6,5,-1,-11,-6,-2,-9,5,4
11,-5,1,19,8,6,25,22,4
-1,1,-2,-23,-3,3,11,0,4
2,-3,-4,-6,-3,-7,-61,-9,4
12,16,6,9,-2,-2,26,-11,4
-3,-24,-1,-6,-2,14,6,9,4
-3,-1,-7,7,-6,-6,-17,-13,4
-8,-7,-2,-5,-2,4,36,0,4
-12,-7,-1,6,4,-3,-25,-7,4
-7,8,7,3,-4,2,60,-4,4
4,0,-6,-8,2,-11,-81,25,4
10,20,21,26,4,13,64,-8,4
-12,-24,-33,-31,-11,-22,-81,-16,4
-7,-5,-18,-52,-5,7,76,0,4
-17,-14,-1,10,0,7,101,5,4
13,1,0,6,0,-5,-69,7,4
8,5,13,17,7,0,23,2,4
-7,6,2,-5,-1,-7,-19,-3,4
-11,1,1,4,-2,8,42,9,4
-9,1,-1,-9,1,-1,-17,3,4
10,5,5,4,-1,9,36,37,4
7,-1,-3,-5,2,-6,-44,-34,4
2,3,7,11,-2,-2,-6,3,4
2,-8,-7,-10,0,-2,-18,-1,4
-6,-4,-1,-3,0,2,-29,-18,4
0,5,1,7,-5,-7,60,-12,4
-10,3,5,5,0,-11,-58,-12,4
4,7,-8,-10,2,1,-13,3,4
5,13,9,28,3,15,5,-13,4
11,-14,1,-28,-3,-8,31,13,4
-14,-13,-19,-3,-12,-8,85,12,4
-3,-8,-7,-24,-3,15,40,-22,4
-6,10,15,32,3,-4,-26,16,4
-9,-4,-3,-11,5,5,17,-7,4
10,-21,-9,-3,0,-7,-13,14,4
-12,-14,-1,3,0,-12,-36,0,4
-6,1,-3,-8,-2,2,-6,7,4
-1,4,5,2,2,24,81,0,4
-11,8,10,16,13,15,34,-27,4
7,-6,-6,-5,-12,-23,-56,16,4
5,-4,0,-2,0,0,-33,-23,4
-5,4,1,8,-6,-17,-15,8,4
1,0,-2,-4,4,23,-9,31,4
33,14,2,-1,-3,-8,-41,14,4
-6,-13,-3,-7,0,-6,10,-41,4
-13,-14,2,17,1,6,-46,20,4
-9,-31,-7,-30,-7,-16,-14,-17,4
-17,3,7,20,3,1,23,11,4
-7,-29,-19,-28,-6,-1,31,-7,4
20,7,-4,11,1,2,21,30,4
25,19,10,17,2,-3,-43,-49,4
-15,0,4,-2,2,5,92,12,4
-2,-1,-2,-2,-2,-8,-11,4,4
-9,7,4,18,0,5,72,-12,4
9,6,-2,-17,-4,-14,-58,29,4
-2,-2,-4,-3,3,22,104,-15,4
-14,-7,-5,-4,-24,-26,-39,-20,4
-7,2,1,18,7,5,-54,9,4
0,8,-5,-17,0,6,11,8,4
8,-1,3,5,3,-10,-55,-17,4
-4,3,-3,-14,8,6,12,17,4
22,0,-8,-9,-4,-9,-26,10,4
3,7,10,21,-5,-10,20,-2,4
3,1,0,0,4,5,-13,-29,4
-10,2,4,9,-2,0,19,20,4
4,-6,-4,-6,2,3,-28,-23,4
-3,3,0,5,0,2,-9,1,4
-6,-6,-5,-8,-4,0,-6,19,4
-10,4,6,5,-3,-7,-13,10,4
7,6,0,-4,0,-4,-26,-5,4
0,47,13,0,1,6,49,10,4
-13,-74,-21,-2,-6,-1,-20,-22,4
5,-2,-1,-5,1,-10,58,-5,4
-10,-3,-5,-8,6,19,12,-7,4
-9,-7,-2,-1,-16,-33,-69,-18,4
3,19,1,5,2,13,85,14,4
11,10,3,-12,9,9,56,0,4
-17,-8,-4,-6,-8,-15,-45,-33,4
4,-9,-4,14,5,11,47,13,4
-9,8,4,10,0,-12,-90,-24,4
-11,-11,-3,-2,0,2,-6,11,4
3,11,1,-19,-3,-9,-32,8,4
-5,-12,-1,15,3,6,14,-32,4
-9,-13,-7,-20,-5,-7,-31,-5,4
-1,15,1,8,-3,3,-17,-35,4
-4,1,3,7,-4,-7,-7,44,4
3,-12,-1,-2,2,4,8,14,4
-1,5,4,2,1,1,24,9,4
-2,-1,0,-2,1,1,-9,4,4
-6,-2,-2,-4,0,4,75,-1,4
3,-1,-2,2,1,-9,-47,-9,4
20,22,7,6,4,3,53,16,4
4,-6,1,26,-4,3,-59,-1,4
-9,-2,-5,-12,-4,-31,69,-6,4
0,-1,-2,-5,11,66,119,13,4
-3,4,-4,-14,-4,-40,-103,14,4
6,0,-3,-12,6,14,121,1,4
5,-9,-5,2,-9,9,-47,-1,4
-17,4,5,-3,0,-15,-31,-9,4
16,4,2,-2,7,20,49,-3,4
7,3,10,4,2,-3,-7,-36,4
9,-1,-6,-1,1,-5,-32,-26,4
6,0,-13,-23,-7,-5,-4,11,4
0,1,5,34,-2,5,-2,-2,4
-9,-4,2,-25,-5,-15,-26,10,4
-21,0,-6,-10,0,5,-23,-3,4
3,6,-4,-11,-4,-4,-13,7,4
-5,-5,-2,-5,-3,-2,17,-3,4
8,1,3,12,2,6,-38,6,4
3,1,6,15,1,3,25,7,4
4,4,3,3,3,-2,-11,1,4
-10,2,-4,-11,-4,-6,-31,-2,4
4,2,2,15,0,6,25,9,4
3,3,-2,-12,0,-3,-49,1,4
0,-6,-3,8,6,10,103,14,4
-23,-9,-9,-13,-14,-39,-71,-29,4
-1,-10,-7,-3,-6,2,31,11,4
2,1,1,8,5,-1,-37,3,4
5,-2,4,-1,0,14,21,-3,4
-2,4,7,4,-6,-7,-61,20,4
-22,1,-4,-7,2,-15,-8,-35,4
14,-4,-1,2,2,3,-56,15,4
-4,-7,3,4,-10,-19,-3,7,4
1,6,1,-3,1,27,77,-15,4
10,-3,-7,-5,0,1,-30,16,4
1,3,4,9,-2,-4,36,0,4
-10,-3,-1,0,0,11,-21,-27,4
-13,-7,-3,-6,1,-9,70,0,4
-13,-3,-2,-2,1,12,10,11,4
-8,0,-1,0,-4,-15,-44,-20,4
8,2,-3,-1,-4,-5,-19,21,4
9,9,15,33,4,5,13,-6,4
0,-4,-13,-11,-2,3,-2,25,4
-11,-3,-6,-42,0,2,7,5,4
2,-3,2,9,-2,-16,-39,-7,4
16,6,-2,-19,2,3,-2,6,4
-7,-8,-1,4,-3,10,-6,-12,4
9,3,8,20,7,12,38,-3,4
12,0,5,22,7,-10,33,22,4
-24,-1,-1,-7,13,29,83,22,4
1,4,0,-6,-23,-38,-42,-21,4
7,-11,-12,0,4,17,26,23,4
0,2,5,-4,-3,-8,-50,6,4
-17,-2,-5,6,-3,-9,-47,-16,4
15,12,17,18,6,1,-26,11,4
-49,-3,-8,-37,-10,-5,32,12,4
-1,-5,1,12,-3,-7,-29,-18,4
6,-4,-10,-34,2,15,-9,9,4
-12,-4,5,28,2,6,31,-5,4
0,0,-3,-7,-3,-10,-9,-10,4
-7,-1,4,4,2,7,21,5,4
11,0,-6,-3,-6,-4,-23,-5,4
0,-1,-1,2,7,3,-46,13,4
1,1,3,12,-7,-3,87,-2,4
13,6,7,-4,1,-1,-38,-8,4
11,2,3,6,-4,-6,-52,-1,4
-4,-6,-14,-31,-5,-7,33,10,4
12,-1,4,9,5,16,8,-1,4
-26,-7,0,6,0,-4,35,23,4
20,-2,-2,10,2,-7,-71,-30,4
8,-3,-5,-8,0,1,-8,18,4
7,9,9,6,-9,-6,-39,-6,4
-3,-2,-5,-9,0,3,91,-6,4
-9,-9,-2,1,-6,-2,-18,6,4
-8,-2,5,9,4,-7,70,-5,4
6,-3,-9,-4,0,6,32,-8,4
-6,-1,-9,-12,-7,6,-41,1,4
6,4,-2,0,2,-3,-9,12,4
9,7,3,-6,-1,9,45,-13,4
1,3,7,19,4,5,0,-2,4
-8,-1,-1,-5,-4,-10,-89,-11,4
-13,-3,5,20,0,1,31,7,4
1,2,-6,-35,3,3,-37,7,4
-4,-6,-4,4,0,10,91,-13,4
-5,0,-3,-12,-10,-35,-71,-1,4
-6,-1,-4,3,2,5,19,3,4
17,5,4,13,2,12,-14,21,4
-8,-3,0,4,-1,-5,-35,-34,4
23,3,11,12,4,1,43,6,4
1,1,-5,-13,-1,-24,-74,-21,4
0,-4,-7,-5,-8,-3,115,-8,4
-4,-3,0,-3,-2,6,-13,4,4
-13,-5,-1,19,-3,-1,91,3,4
-7,-3,-9,-35,-3,3,-3,0,4
4,3,-3,2,-2,-1,-19,-5,4
18,3,3,4,1,-10,-40,1,4
-14,-3,-3,3,5,11,-32,-2,4
-12,-4,0,-2,-4,3,15,2,4
-6,-1,1,2,-2,-10,-26,-6,4
3,3,-1,-3,0,-4,-36,13,4
10,5,0,-18,2,10,39,-10,4
-2,-1,2,1,-1,6,9,5,4
-3,-4,0,18,-4,-8,-64,-7,4
4,0,-4,-9,-2,-7,2,5,4
-6,-2,0,6,-2,7,62,-14,4
-1,-1,-2,-6,2,2,-42,-8,4
-2,1,22,52,3,4,72,-1,4
-15,-7,-39,-80,-12,-33,26,-17,4
11,5,3,1,-9,9,83,17,4
-11,-9,-2,10,10,-13,75,25,4
15,4,3,4,6,6,-31,-10,4
18,7,21,32,5,22,28,4,4
24,2,-8,-25,0,-9,-48,-9,4
0,0,2,6,-3,3,36,-3,4
3,-1,-7,-16,1,3,-15,5,4
-14,0,5,17,-1,-7,-5,8,4
-15,-4,3,10,5,3,-57,-3,4
13,2,-2,-12,-6,5,23,0,4
-9,-5,0,-2,1,0,-18,-13,4
1,1,-3,-2,-2,13,71,11,4
6,1,-2,9,1,-12,-94,-1,4
-1,0,-5,-27,-6,5,22,-13,4
-4,-5,-8,-12,-1,-2,37,6,4
4,1,5,17,3,1,-42,3,4
-9,-2,1,6,1,3,20,-5,4
2,4,14,31,3,-6,-29,-1,4
-4,-2,-11,-27,-8,6,87,-1,4
-7,-5,1,9,-6,-13,-107,-4,4
-2,-5,-8,-11,1,0,-78,-7,4
12,6,1,5,0,5,16,6,4
-6,-1,-2,-7,3,-2,-20,-1,4
4,0,2,11,2,1,1,5,4
1,-3,-4,-13,-11,-15,11,8,4
5,1,-2,0,-1,3,37,-10,4
-8,-3,-1,3,0,5,-26,3,4
7,1,-1,-1,2,-2,26,15,4
-12,-4,-5,-7,0,0,-5,-1,4
2,-1,1,6,-2,4,-6,8,4
13,0,-4,-6,-2,0,3,2,4
-5,3,9,23,0,-7,-25,3,4
6,1,-2,-36,0,5,31,-4,4
-10,-4,-8,-13,-4,1,0,1,4
9,3,1,8,-1,-8,-53,0,4
-8,-2,4,7,0,-3,74,1,4
-13,-11,-21,-18,1,8,-41,-4,4
-9,-2,-1,5,-5,-12,72,3,4
-4,0,-4,-5,1,5,9,0,4
3,3,6,11,0,2,12,0,4
-14,-4,5,11,1,-12,-50,18,4
7,-1,-1,-6,1,11,18,-24,4
10,3,-1,-2,-4,-17,-13,-10,4
-15,-10,-6,-5,5,19,15,-7,4
13,6,3,6,-2,-6,5,-4,4
9,6,2,-1,3,5,-9,8,4
-14,-3,2,14,-1,-10,3,-1,4
-6,-4,-7,-30,-2,5,-80,-8,4
6,1,-3,1,-4,-22,20,4,4
-7,0,10,14,3,-1,-71,8,4
2,2,1,22,6,6,52,1,4
-20,-9,-15,-50,-10,1,-7,-9,4
5,0,-4,4,1,19,43,-1,4
-3,1,0,4,-4,-15,-12,-2,4
-2,-1,2,-5,1,3,-16,8,4
-4,2,5,21,4,-2,-21,10,4
-6,-4,1,-10,-3,-8,-39,-21,4
9,3,0,0,-1,13,3,-14,4
-3,-3,-5,-6,-3,-16,6,3,4
12,-1,3,16,-3,-7,-48,3,4
14,6,4,0,2,3,27,5,4
-12,-1,-1,3,-6,-6,-5,18,4
2,-4,-5,-5,11,35,-19,-6,4
1,5,0,-3,2,-3,31,1,4
-8,-3,1,7,-4,-42,-30,-2,4
14,-1,-2,-4,-4,7,17,3,4
3,4,0,-8,-2,1,-27,10,4
9,4,1,1,1,9,77,-5,4
-16,-5,-2,4,3,21,-9,-11,4
2,-1,-1,2,-2,-10,-28,0,4
3,2,-1,-10,-3,-6,-19,-3,4
0,-6,9,14,7,11,-7,7,4
-10,-5,-11,-4,-6,1,52,-8,4
-4,-6,-13,-16,-5,-7,-70,-2,4
-5,1,15,21,-1,-1,-5,-2,4
5,1,-13,-33,-3,3,-22,8,4
5,3,7,10,1,2,38,3,4
-2,1,5,9,3,-6,71,-6,4
0,-1,0,2,-9,1,-30,-4,4
-5,0,2,17,3,10,-28,-3,4
2,8,5,1,-1,-2,-6,12,4
8,-3,-3,-2,5,4,29,4,4
-16,-10,-8,-13,-2,-13,-48,-10,4
-3,1,1,3,-3,-14,92,5,4
-4,-2,-3,-1,1,23,4,-2,4
-9,-2,4,9,-1,-3,23,4,4
-4,1,-3,-13,-4,-16,-36,-5,4
10,-2,-17,-9,-2,4,40,-26,4
6,-3,13,13,3,-4,-64,2,4
-11,-6,-18,-22,-5,-10,2,4,4
4,0,-6,-5,-4,8,68,-2,4
5,3,7,12,-2,1,7,1,4
8,6,-1,-8,5,3,33,7,4
-1,3,14,24,3,14,9,-20,4
-7,-1,-2,-24,1,3,66,6,4
-8,-4,-7,-27,-8,-15,-115,-1,4
-1,-2,3,9,0,10,107,6,4
-4,3,11,20,-1,-11,-88,-4,4
2,-2,-2,7,15,47,127,17,4
-1,-8,-3,8,-14,-49,-111,-20,4
3,-1,-3,4,0,3,-23,-2,4
1,1,0,11,-3,-2,-35,-11,4
-18,-3,-6,-15,-1,-2,-46,-23,4
0,1,2,4,4,2,18,-9,4
7,4,1,11,-2,2,-25,-5,4
-17,-3,-7,-7,-2,-3,20,9,4
-3,-6,-9,-22,-3,-14,-12,5,4
-6,-7,-3,2,1,4,6,12,4
-11,-4,-5,-9,-4,-6,-4,-5,4
13,5,5,8,4,6,34,7,4
11,6,8,18,-4,-11,-36,-2,4
5,4,-6,-10,1,-2,-1,9,4
3,-2,-2,3,-1,7,-16,3,4
3,2,-1,-9,5,-2,68,5,4
-10,-7,-4,0,-13,-6,85,-15,4
1,1,5,4,1,3,12,8,4
0,0,0,1,-1,-28,-78,1,4
4,-1,-4,-9,-3,-5,58,10,4
10,5,1,-3,-5,8,-3,-4,4
0,-2,-1,10,4,9,-8,7,4
3,-1,-4,-11,-4,-9,9,-8,4
-5,-6,-3,-4,1,7,-25,2,4
3,-1,0,6,-1,-13,-32,7,4
-13,2,7,4,-2,-1,13,-10,4
4,-3,-7,-3,3,15,4,23,4
2,-1,-1,-9,-2,-3,-10,-6,4
3,-2,1,8,-2,-8,-28,1,4
1,20,6,1,0,4,2,0,4
1,10,1,-4,0,0,8,-3,4
3,-46,-5,15,2,9,-6,2,4
-10,-4,-3,-10,-5,-21,-79,-7,4
-12,-7,0,-7,-4,1,69,18,4
0,6,-9,-13,3,21,4,-7,4
3,15,-1,-12,-14,-45,-71,3,4
2,-10,-2,13,-2,-18,-8,5,4
8,2,9,20,6,15,3,8,4
3,-3,3,1,-6,-6,-6,-4,4
-13,8,0,-5,8,30,-21,2,4
-6,-1,0,11,2,-1,57,10,4
1,4,-4,-10,-6,-18,-83,0,4
-6,-8,-2,-2,-2,5,36,-1,4
5,6,-1,-1,-1,7,8,-4,4
0,11,-1,-2,2,9,-23,-1,4
-7,-11,-6,-2,-2,-2,42,-6,4
17,0,7,14,3,0,5,6,4
-15,-3,-10,-30,-5,4,-12,-14,4
