-91,-103,45,-120,-15,-24,-37,2,5
-13,-36,9,-114,-58,-40,8,29,5
34,53,58,72,18,32,32,10,5
100,76,52,75,12,-5,-3,-33,5
-12,-50,-90,36,-15,-8,-14,-8,5
-44,-33,-83,5,-9,17,14,-10,5
-127,-48,1,-37,-25,-18,-22,14,5
36,-5,-33,-22,3,-8,17,-18,5
101,111,93,53,26,62,7,-2,5
26,-53,-36,-3,-1,-8,-9,-20,5
-57,-48,-69,-37,-15,-5,-12,1,5
-7,-8,-2,-28,0,18,43,7,5
54,33,0,13,0,-2,-19,-17,5
123,106,87,55,28,36,27,-19,5
118,17,-22,3,15,92,56,-9,5
-118,-110,-57,-53,-30,-101,-84,-6,5
33,-35,-18,-5,-23,-24,-13,23,5
-37,11,-31,15,4,22,-11,-39,5
108,108,42,41,17,12,-9,-36,5
-50,-65,-62,-76,-10,26,30,-25,5
28,-6,-40,13,10,0,25,32,5
-100,-85,-30,-33,-31,-59,-28,-11,5
-64,-73,53,-9,10,-9,-8,-28,5
86,89,80,35,18,24,23,5,5
-14,-67,-74,-27,-16,-44,6,-21,5
112,39,13,16,9,24,-76,19,5
8,47,42,17,10,10,30,2,5
-38,-10,-7,-1,-6,-9,10,-7,5
-12,4,7,-9,-11,3,19,50,5
-8,29,-12,20,30,69,69,-16,5
-76,-50,-50,-46,-26,-20,-19,-22,5
27,13,34,18,16,88,-6,25,5
-30,19,-20,-13,-48,-99,-104,24,5
79,97,94,93,54,80,72,25,5
49,-102,-99,-106,-13,77,92,50,5
-61,-54,7,-28,-39,-85,-34,14,5
-6,44,27,36,8,-67,-73,-34,5
-58,9,65,47,-10,54,-11,50,5
10,-43,5,-3,10,31,52,52,5
-52,-53,-86,-58,-1,29,30,-33,5
-22,-15,15,-22,0,10,18,25,5
86,-11,-11,-1,-2,-66,11,4,5
127,127,127,95,44,8,-102,-43,5
-91,-48,-19,-9,-13,-14,1,81,5
-119,-128,-97,-31,12,122,107,58,5
3,-48,-52,-41,-37,-91,-58,-65,5
-15,3,3,-7,-43,-83,-81,12,5
87,39,15,21,10,41,35,-20,5
85,72,52,36,51,127,127,17,5
-35,6,-19,-9,50,79,54,53,5
-76,-38,-15,-14,-49,-127,-84,-32,5
96,63,12,28,24,26,-13,-2,5
121,109,93,22,-3,-3,-21,-50,5
-103,-43,-118,-99,-48,-53,2,43,5
-83,-66,-30,-12,-13,-44,8,28,5
43,30,-9,32,12,-14,-24,-39,5
60,54,85,56,33,57,32,4,5
-8,65,64,33,13,-2,-31,-41,5
-67,-66,-93,-93,-51,-44,29,81,5
50,15,30,12,5,0,39,29,5
17,21,20,7,8,24,22,-32,5
51,55,19,24,-16,-101,-45,-5,5
127,118,122,83,79,127,127,37,5
-80,-75,-47,-52,-46,-117,1,-80,5
-121,-81,-94,-60,-92,-128,-128,-70,5
26,-35,-24,-3,12,108,99,50,5
-1,-1,9,20,19,98,28,-35,5
127,74,50,23,27,71,110,20,5
-34,-22,12,16,24,20,56,40,5
-86,-62,-60,-41,-34,-62,-90,-101,5
23,38,51,34,16,-36,-16,28,5
-11,-38,-42,21,16,16,-44,3,5
69,74,92,22,1,-27,-40,30,5
-10,-100,-102,-93,-31,-14,10,-10,5
22,83,63,31,21,24,16,-23,5
-107,-62,-9,-17,-16,-20,-40,-18,5
32,-22,-7,14,-11,-77,-34,4,5
6,103,115,53,19,26,-2,-6,5
46,-58,-78,-20,-15,-19,-34,36,5
-71,-56,-31,-32,-13,26,30,-8,5
16,13,-5,6,29,99,69,-33,5
-52,-89,-91,-38,-43,-67,-75,19,5
96,46,23,8,11,-29,23,-34,5
58,41,45,20,0,41,-4,-13,5
37,-18,-70,-40,-8,70,92,-11,5
96,64,53,46,22,57,106,34,5
-89,-17,43,18,8,34,49,-79,5
-17,2,-13,-10,-10,-74,-57,-30,5
-61,-36,-56,-18,-9,-46,-50,4,5
86,104,116,51,29,51,29,20,5
-128,-110,-118,-49,-26,-61,-42,29,5
-25,60,69,17,10,1,1,-37,5
-61,-22,-66,-21,-11,-15,-40,-8,5
-61,-60,56,5,2,1,-1,12,5
77,97,64,52,40,117,68,28,5
82,54,-6,-2,-2,-25,-63,2,5
-128,-128,-99,-54,-54,-68,-64,8,5
15,-19,-39,-10,0,76,11,-21,5
46,27,36,10,1,2,-9,-45,5
43,41,50,30,40,127,127,104,5
49,9,-5,-8,11,-16,-75,-16,5
24,-3,-43,-15,-28,-2,27,-44,5
-36,-28,-11,-16,-4,73,71,52,5
33,11,16,9,9,9,8,16,5
-54,9,31,4,15,43,64,32,5
13,0,-19,11,9,-30,-19,10,5
78,42,47,12,0,-49,-46,-46,5
-64,-49,31,10,-5,-28,-8,6,5
-86,-43,-55,-39,-21,-18,-4,-5,5
72,18,-33,1,16,-14,-25,-15,5
-52,-28,-53,11,5,12,7,-21,5
127,118,101,61,33,55,16,7,5
-7,-64,-59,-69,-54,-47,-50,22,5
-119,-51,-49,-26,-17,3,10,-46,5
103,40,31,4,11,26,15,17,5
-56,-26,1,-18,-16,-16,-37,-19,5
40,62,69,52,36,62,43,19,5
60,13,11,4,8,37,33,66,5
-22,-12,-4,-17,-30,-128,-74,-47,5
16,-6,-31,-20,-18,-35,-122,-65,5
-37,3,13,3,2,17,94,9,5
-83,-30,-13,-17,-5,-17,-1,6,5
7,1,11,10,4,47,52,28,5
62,38,15,7,16,79,93,62,5
32,-15,-23,-25,-11,-9,-62,-16,5
-18,-26,-6,2,-42,-76,-70,-52,5
-25,11,10,0,3,95,14,7,5
32,-47,-126,-72,-20,64,20,10,5
78,41,32,25,7,-21,7,27,5
-60,36,48,17,17,24,21,4,5
-98,-69,-24,-13,-18,-78,-60,-4,5
-7,-7,4,1,-7,-36,-15,19,5
33,-8,19,11,17,27,27,-57,5
89,22,-16,1,10,-10,14,30,5
45,24,12,3,-2,-23,-36,-45,5
-31,14,28,11,6,-1,23,26,5
-1,4,5,7,-3,-13,-6,-10,5
51,18,11,3,10,11,7,31,5
-34,-15,-25,-33,-7,1,0,-24,5
-27,-19,-16,0,-14,-51,-12,-20,5
16,19,12,19,8,25,7,1,5
34,33,68,15,25,84,10,-28,5
-49,-68,-90,-49,-46,-96,-74,21,5
6,-19,-19,-11,-6,27,16,-28,5
-20,8,23,15,10,35,7,0,5
-30,16,20,16,4,5,-15,-40,5
44,62,49,15,14,32,37,-2,5
-114,-103,-96,-46,-27,-78,-39,25,5
27,1,3,4,-5,11,15,-19,5
63,15,6,-7,6,-3,18,33,5
40,20,31,23,4,-10,-29,6,5
49,43,37,26,9,11,3,-5,5
14,-7,5,-3,3,11,18,10,5
29,-12,-22,-12,-9,-23,12,16,5
-9,13,9,11,20,101,94,12,5
-80,-9,4,-7,-27,-77,-60,-11,5
-24,-11,-3,5,15,75,67,4,5
-21,-17,-4,0,-28,-103,-80,-31,5
34,-16,-45,-9,4,23,17,9,5
127,82,59,17,27,64,51,-11,5
-102,-49,-39,-15,-25,-56,-55,-46,5
-64,-47,-33,-16,-5,20,11,-17,5
-1,3,10,8,6,-10,-13,-3,5
42,13,13,30,-2,-25,-8,25,5
127,38,24,-15,17,20,15,19,5
24,3,-1,-1,10,35,19,1,5
-121,-80,-61,-32,-24,-59,-33,3,5
-20,-32,-10,-11,-4,-2,-19,-50,5
49,27,18,22,7,6,12,33,5
46,55,9,5,3,4,-2,6,5
54,6,33,11,2,-1,-3,20,5
69,8,1,13,8,17,39,19,5
-99,1,-16,-16,-9,9,-18,-36,5
-32,-27,-8,-10,-12,-53,-38,-7,5
18,27,10,5,-10,-44,-37,4,5
-2,-5,10,3,9,75,34,12,5
67,32,22,12,0,-42,15,41,5
-54,-31,-34,-17,4,74,-12,-14,5
-93,-36,-20,-12,-20,-61,-59,9,5
14,4,23,14,5,19,8,-4,5
61,78,88,19,14,41,21,16,5
-7,-54,-68,-11,2,31,52,24,5
6,-7,-13,-9,3,-6,6,-33,5
55,20,11,-5,1,-13,-9,27,5
-92,-20,-4,14,-1,-13,-12,-26,5
34,28,38,1,-2,-18,-5,-17,5
-30,12,2,4,5,35,18,-5,5
-97,-68,-51,-29,-17,-47,-16,9,5
27,-1,-13,6,10,22,48,-3,5
23,9,11,4,-1,-21,16,18,5
94,50,44,26,20,83,61,-6,5
0,27,13,6,-15,-86,-50,13,5
44,-3,4,-12,3,47,27,37,5
-86,-42,-51,-21,-23,-48,-34,-11,5
-3,-6,-9,-7,-5,24,8,19,5
58,6,-7,-1,4,30,16,-4,5
32,67,45,16,11,35,2,-37,5
-22,-75,-34,-5,-5,6,30,19,5
-54,-10,16,5,6,-3,-10,-75,5
-13,-38,-46,-32,-23,-55,-62,-27,5
71,37,-4,-4,-6,-32,-32,28,5
110,13,23,12,10,30,3,-12,5
-9,5,3,0,0,-19,1,-2,5
-38,-12,42,14,6,27,30,-5,5
-7,-17,-48,-11,-7,-21,-22,-12,5
-23,21,11,-2,2,-21,-1,4,5
10,-25,-18,-9,-2,34,23,13,5
-62,12,18,11,7,-21,16,8,5
44,-12,-2,5,-2,14,23,3,5
52,63,49,18,21,110,25,-31,5
7,-19,-64,-38,-47,-95,-93,1,5
-65,-80,-41,-31,-16,86,-60,-14,5
-5,-50,-47,-18,-19,-13,-15,3,5
95,84,53,31,21,65,62,47,5
-20,3,37,16,23,31,80,18,5
9,15,-7,-9,-6,-19,-16,-11,5
-102,-81,-50,-28,-15,-54,-23,-27,5
63,30,11,4,3,-13,-4,2,5
53,27,5,-4,2,-13,-7,8,5
-29,14,16,10,3,-20,8,-11,5
-13,-9,9,8,0,7,-11,-3,5
-7,-7,-21,-13,-9,-23,-4,-52,5
24,9,17,7,1,-2,-7,-29,5
-24,7,-1,2,13,19,35,0,5
54,24,12,0,-8,-16,-9,-3,5
-41,18,8,16,5,-10,1,14,5
-118,-84,-20,-15,-12,40,-12,-22,5
67,-5,-35,-13,11,2,78,-3,5
-1,-21,0,-4,-14,-22,19,-4,5
19,17,10,14,6,13,47,19,5
127,96,76,36,26,64,26,6,5
-14,-46,-83,-40,-15,-30,7,1,5
-118,-66,-20,-4,-7,-18,-13,-11,5
-5,-30,0,4,-7,-32,-51,-34,5
43,46,38,18,15,26,20,7,5
39,31,26,4,1,-2,-30,-3,5
-3,-5,-4,-4,-1,-10,-27,-12,5
-24,-11,-10,-7,-1,24,9,2,5
13,7,-5,6,15,5,34,-8,5
-22,7,14,6,-9,-27,-53,-1,5
-5,6,-5,-1,1,33,35,19,5
-32,-14,-3,-1,10,-1,3,-51,5
12,-9,-19,-15,-33,-78,-29,20,5
47,16,14,11,7,15,-15,-26,5
90,28,28,10,6,17,5,-21,5
-90,-27,-31,-24,-11,14,14,9,5
-103,-112,-69,-31,-20,-12,6,-15,5
64,38,23,44,9,1,14,-7,5
66,21,16,18,4,-6,-26,-9,5
98,-1,-7,-56,0,0,-13,-3,5
36,59,7,-2,1,-1,-20,-11,5
-53,-14,6,-9,-3,3,-1,-3,5
-16,14,14,12,7,5,8,10,5
-22,-6,-7,14,-5,-12,-23,4,5
-19,-9,5,1,6,-1,0,25,5
-7,2,5,9,0,13,11,-30,5
-20,16,-1,-6,2,6,-2,-3,5
-13,-18,0,1,-11,-32,-27,14,5
16,7,2,3,6,55,31,7,5
-2,11,12,6,6,-21,1,2,5
-17,-21,-16,-9,-3,6,-33,16,5
-11,17,5,2,-6,13,11,-32,5
13,-22,2,18,2,-6,-3,6,5
9,6,-2,-13,2,35,35,8,5
-24,-11,-6,3,4,-4,7,-4,5
21,8,-2,-5,-3,-33,-25,34,5
15,23,6,2,7,19,27,-13,5
-13,-13,2,4,-3,-9,7,-9,5
-8,4,2,22,-3,-9,-32,1,5
11,6,4,11,1,5,6,1,5
1,-10,-15,-39,-8,-16,-21,-1,5
-12,-10,2,-8,0,8,1,20,5
8,33,16,23,5,0,10,0,5
11,19,12,88,6,11,12,10,5
1,-40,32,-39,7,-9,-14,3,5
109,41,-26,-50,-9,9,3,1,5
-56,-22,-21,-77,-8,1,22,-4,5
-102,-83,-68,-23,-19,-26,-17,9,5
-23,-3,18,44,3,-9,-8,-11,5
15,36,25,51,7,13,5,8,5
68,27,23,33,11,1,-12,4,5
50,32,23,-2,6,18,60,-5,5
-8,0,-14,12,-10,-48,-97,-19,5
-20,-9,4,-3,2,50,110,16,5
1,9,-4,-2,-9,-77,-123,-52,5
-29,-23,1,-21,-4,33,100,-5,5
1,-13,-19,-8,-9,-57,16,22,5
-20,-8,-6,-6,-2,6,-30,-7,5
-19,-18,-11,-16,-3,11,30,-7,5
18,-6,7,-8,8,16,-2,13,5
24,34,6,15,11,37,44,-2,5
-13,-9,5,30,2,0,-10,5,5
-7,1,26,18,5,14,30,8,5
28,69,52,87,1,-20,-76,-8,5
-8,-45,-81,-95,-21,6,-2,2,5
4,6,-53,-70,-8,-24,-41,3,5
45,16,27,20,3,17,4,7,5
-14,-23,-13,15,-6,-24,-20,-18,5
-46,-13,1,33,-1,-5,-11,-14,5
-58,-35,6,19,0,-1,-3,-12,5
6,22,-1,-5,1,13,29,10,5
40,27,18,-13,8,2,-16,10,5
25,21,19,15,1,17,48,-6,5
-5,-10,0,-11,-2,-12,-21,7,5
10,25,5,3,2,-1,62,-23,5
-33,-74,-30,-36,-17,-47,-128,-19,5
3,-43,-17,1,1,9,100,18,5
-4,-6,9,6,0,15,46,-10,5
-15,-13,-17,-10,-2,-5,-4,16,5
29,17,-3,-24,8,30,92,17,5
3,47,23,18,10,7,-8,-6,5
19,-8,11,32,1,-13,-20,10,5
-33,-24,36,102,12,16,13,11,5
-7,16,-46,-96,-15,-6,22,-25,5
4,-38,-34,-35,-22,-37,-116,-9,5
59,21,6,-10,2,-3,-21,-2,5
-86,-40,-35,-20,-10,-23,49,-16,5
-15,8,53,94,17,8,-13,21,5
-2,52,50,94,13,10,-30,-10,5
3,-26,-62,-111,-14,-4,29,5,5
58,5,-8,-13,2,21,17,19,5
8,10,6,-3,-3,-17,-46,-36,5
0,4,8,16,-1,-2,31,13,5
-33,-11,25,51,2,-2,-40,-8,5
-5,-8,-13,-26,-1,7,20,36,5
-2,3,-3,-8,2,16,33,1,5
116,127,88,30,11,-3,-30,14,5
52,73,118,46,19,29,30,2,5
-101,-103,-107,-89,-35,-61,-82,-36,5
9,19,37,-17,-14,3,25,13,5
69,65,74,31,13,10,80,30,5
73,78,85,7,-1,6,-57,-31,5
49,-37,-36,-22,1,-3,-49,-14,5
-14,-61,-52,-31,-2,-5,29,18,5
-27,-12,37,-30,-1,16,-2,-19,5
-82,-103,-109,-33,-1,-6,33,8,5
27,113,127,47,8,12,-34,0,5
-31,32,73,7,-1,-22,-88,-22,5
-17,-2,35,12,-2,7,24,7,5
-14,7,9,-8,-4,-8,17,-3,5
-4,-17,-30,1,-4,-3,13,-1,5
45,93,103,38,39,87,61,18,5
10,-74,-94,-47,-18,-53,-51,-9,5
-21,-47,7,14,-11,-15,-27,-35,5
42,-60,-105,-26,-11,-30,15,30,5
33,108,114,65,53,54,55,19,5
-36,-27,-72,-43,-50,-88,-56,-8,5
-43,-77,-80,-29,-16,-6,46,-43,5
-82,-26,32,4,-5,-7,-110,2,5
-92,-120,-100,-35,-23,-15,106,41,5
20,17,25,1,24,72,61,-51,5
65,42,9,27,4,-7,-57,49,5
72,72,41,17,5,12,111,-39,5
45,-7,-43,-11,-7,-22,-6,5,5
-10,-6,-8,2,10,21,34,40,5
7,36,19,8,-2,-10,-12,-7,5
52,56,59,25,15,19,-4,-11,5
10,4,-1,-18,-18,-29,-77,-10,5
-50,-16,-14,-11,-8,6,6,-3,5
-77,-10,10,-3,5,-14,-7,4,5
6,58,72,12,-5,8,-1,15,5
98,67,29,75,32,41,22,-1,5
-23,-68,-59,-60,-26,-61,-48,-2,5
11,-98,-97,-40,15,100,45,20,5
-128,-128,-128,-58,-64,-106,-77,-4,5
-86,69,84,-4,-18,48,-35,45,5
-29,114,127,58,34,117,0,-91,5
87,121,103,43,28,48,80,103,5
66,43,15,-10,12,8,58,-85,5
46,-42,-36,6,-1,-34,-24,39,5
-34,-30,-52,-3,-4,-21,35,-12,5
53,18,-13,-1,-7,-25,29,7,5
-64,-4,2,8,18,36,5,12,5
-6,-76,-82,-43,-33,-69,-6,-26,5
-15,-6,-16,18,13,13,0,19,5
20,62,105,48,22,74,34,-30,5
37,37,-1,-17,-37,-68,-65,32,5
-48,-85,-82,-52,-22,45,32,-5,5
34,-1,3,13,1,5,-102,10,5
28,98,88,78,10,-6,-22,-13,5
42,-76,-67,-65,18,77,72,33,5
-30,-57,-125,-34,-11,-16,27,2,5
-68,14,45,7,1,-28,3,-7,5
-68,-33,-47,-3,-6,-32,-20,2,5
101,127,127,60,18,32,0,6,5
-10,-103,-106,-54,-26,-47,-42,-49,5
-69,-13,-55,-3,13,49,73,36,5
-21,14,53,-12,-12,0,16,6,5
1,2,41,18,0,-42,-17,-24,5
75,50,66,12,8,26,-70,-26,5
121,127,127,29,1,-71,-49,17,5
-128,-128,-128,-89,-40,-26,13,29,5
-14,-24,-92,-7,7,55,-8,-7,5
46,76,85,34,22,22,35,-13,5
90,50,59,2,-2,14,23,37,5
-6,40,24,-6,2,-17,-32,-23,5
-10,11,75,88,21,23,41,36,5
-128,37,127,-26,-10,-30,-34,-49,5
46,-128,-128,-103,-9,7,12,9,5
28,-27,-1,13,-7,-24,5,1,5
91,70,76,17,14,26,18,15,5
118,127,127,127,93,92,108,33,5
-75,-59,-44,-79,-81,-85,-55,-47,5
-99,8,62,-38,-38,7,-42,-3,5
24,67,70,35,11,41,30,-27,5
113,113,126,51,19,50,-18,25,5
87,75,53,46,50,89,127,-3,5
81,-9,-45,3,29,80,21,-9,5
-120,-95,-82,-44,-51,-103,-80,-5,5
2,-42,-75,-45,-43,-39,15,-21,5
-107,-85,-77,-3,3,18,42,-28,5
-18,-9,-20,15,-7,-28,22,-70,5
27,24,9,4,26,40,55,36,5
-10,-27,-67,-28,-6,-35,-35,9,5
7,32,78,28,-2,-17,-55,10,5
86,34,9,36,17,-6,-6,-24,5
70,89,65,6,17,68,-7,32,5
-128,-128,-128,-127,-79,-128,-73,-24,5
127,121,112,11,4,35,27,24,5
-93,54,112,20,3,-15,-41,7,5
75,98,112,79,32,21,36,12,5
-74,-83,-90,-52,1,63,92,-11,5
-87,-15,-18,10,-20,-80,-76,18,5
114,71,50,-5,7,49,52,54,5
-21,-30,-19,-21,-45,-110,-91,-71,5
47,74,91,38,26,114,93,48,5
3,-32,-42,17,22,99,-102,-16,5
52,-12,-38,-5,16,55,86,29,5
-49,-36,-52,-16,-13,-76,-97,-29,5
-44,-31,-28,5,-14,-31,105,39,5
-14,-15,-1,3,6,14,78,-29,5
100,110,96,48,14,6,-16,-23,5
-79,-101,-72,-73,-7,56,75,64,5
35,64,123,61,-5,-79,-104,-70,5
54,-18,-46,-4,20,15,11,39,5
-114,100,127,-36,-19,-41,-19,-20,5
-122,-75,-59,-39,28,114,74,6,5
-55,-46,6,-49,-72,-99,-122,-24,5
48,114,127,53,29,108,93,55,5
-38,-50,-25,-7,-28,-99,-78,-67,5
57,50,68,11,10,94,69,-10,5
21,33,9,11,17,-16,24,-4,5
55,5,-34,-6,-10,-34,-9,69,5
-56,-66,-81,-20,-23,-31,-28,-56,5
-1,-22,-35,-5,-2,12,-15,-17,5
37,13,-14,25,29,103,75,19,5
-49,-38,-31,-27,-31,-95,-56,-45,5
82,61,70,60,28,-20,21,18,5
53,114,127,2,-4,62,10,19,5
41,-63,-86,-82,-1,27,52,14,5
51,119,123,38,28,123,34,-22,5
-128,-128,-128,-128,-102,-83,-114,52,5
-76,99,115,26,-23,0,-11,-32,5
115,127,127,94,50,114,28,8,5
71,43,-7,-12,9,60,60,17,5
14,-40,-56,25,27,23,-5,-45,5
1,-22,-53,-10,4,-48,20,74,5
-53,-60,-41,-18,-13,-58,-52,-2,5
-112,-65,-51,13,-7,-52,-46,-97,5
59,23,0,8,18,5,4,16,5
37,-56,-77,-27,-13,-48,71,62,5
-12,15,13,11,8,-7,-121,-30,5
12,33,43,11,-2,-1,69,-12,5
71,35,7,19,41,127,91,24,5
-28,2,42,-9,-64,-97,-103,-34,5
-18,19,8,34,15,103,75,45,5
-128,-96,-35,-7,-3,-22,13,-8,5
-51,-70,-45,-45,-18,13,-11,18,5
48,-22,-115,7,32,56,44,-13,5
48,60,90,31,4,-47,-30,-1,5
79,95,56,20,-7,-54,-53,-14,5
-14,-77,-69,-41,0,3,67,63,5
-73,3,97,11,5,-29,-33,-93,5
-24,31,72,-29,-18,-19,-30,-55,5
59,33,75,36,29,55,95,44,5
72,88,79,36,-2,-17,1,-24,5
-17,-53,-61,-29,-10,-56,-91,24,5
12,1,-29,10,4,49,101,14,5
40,-9,-29,-16,20,-4,4,-56,5
-93,-16,-15,13,-11,63,63,-37,5
-13,-34,-50,-22,-17,102,97,33,5
-72,-46,-4,13,5,36,-34,-33,5
92,75,77,39,34,70,43,42,5
43,-20,-53,-42,-16,-61,-40,-8,5
-70,-76,-70,-85,-47,-78,-95,-38,5
56,63,60,41,7,77,26,30,5
36,32,40,0,-15,23,-29,-3,5
127,106,106,54,52,72,1,30,5
-33,-55,-54,-70,-27,-56,23,-17,5
-121,-39,22,-40,-27,-111,-28,0,5
10,9,56,4,-10,-32,-40,-3,5
79,97,127,73,11,-31,-26,22,5
106,58,42,51,42,46,44,51,5
34,-25,-65,-27,0,9,39,-7,5
-70,-45,-56,-22,-13,31,48,9,5
-92,-47,-49,-17,-8,-55,-65,-90,5
-3,-15,-13,6,3,77,97,43,5
1,-8,-28,2,6,73,70,28,5
-49,-69,-88,-27,-19,16,36,28,5
89,86,95,45,18,51,57,-14,5
-33,-61,-47,-43,11,60,-13,-55,5
-61,-75,-90,-42,-39,-128,-128,-21,5
-70,43,43,17,13,21,-36,12,5
18,69,83,15,-9,22,-6,7,5
71,6,6,-7,1,-26,-12,-2,5
127,91,67,12,15,29,-13,-16,5
-128,-128,-128,-128,-65,-71,-29,-34,5
-10,79,103,47,5,-38,-3,21,5
127,127,127,85,21,11,19,33,5
105,74,71,21,12,24,3,-11,5
46,14,-1,31,10,47,-2,-66,5
-31,-54,-63,-47,-25,-74,87,36,5
16,-9,-21,16,42,105,-68,-22,5
-44,-34,-59,-17,-24,-90,29,-55,5
-68,-26,-12,6,-37,-74,15,41,5
-79,-93,-93,-41,-13,89,55,-35,5
-9,9,14,30,37,43,91,13,5
69,113,120,62,20,11,-6,47,5
58,-44,-99,-61,21,108,39,9,5
-84,-110,-92,-45,-40,-118,-114,-15,5
51,114,111,89,21,40,5,-34,5
-16,-71,-122,-30,13,69,32,16,5
127,127,126,53,25,21,16,54,5
-90,-112,-127,-106,-39,-42,-9,42,5
-53,58,115,33,6,-5,-13,-36,5
-88,53,15,-3,-3,5,-8,-9,5
-28,32,55,32,-6,-41,-59,-6,5
95,66,45,47,35,74,18,27,5
41,-18,-33,-18,-11,-24,19,3,5
45,-10,0,-6,-6,-16,4,-57,5
-7,-32,-44,-11,-22,-89,-96,1,5
3,2,18,13,7,92,83,21,5
5,-19,-27,-1,24,40,76,102,5
-47,-8,47,-8,-23,-58,-86,-57,5
-31,-61,-47,-2,-17,-19,-29,88,5
46,43,43,-4,1,61,34,-52,5
-20,46,54,27,1,40,51,23,5
73,47,35,36,42,127,86,18,5
-115,-108,-105,-92,-61,-128,-71,-54,5
-71,79,127,-4,-20,-45,-65,-38,5
-52,-23,5,-38,-18,-32,16,-4,5
33,45,103,11,10,-14,-10,13,5
68,47,43,26,11,8,0,-34,5
42,-30,-20,7,14,12,-15,15,5
-76,-12,-18,6,-6,-23,-32,-14,5
-23,-67,-68,-19,-10,-2,28,26,5
68,16,11,7,1,16,7,-29,5
-10,-17,-32,6,7,-47,-82,33,5
35,-13,-35,7,-7,-19,29,30,5
11,-6,-25,-3,0,0,22,20,5
79,64,71,25,46,127,112,15,5
-89,-72,-88,2,4,-22,51,9,5
-16,64,91,4,-18,-100,-76,-46,5
-14,-99,-111,-43,-16,81,-3,68,5
-19,-1,35,6,8,21,-12,-43,5
127,116,116,90,17,30,2,-28,5
0,-82,-128,-71,-4,34,31,4,5
-69,48,113,-36,-16,-37,25,17,5
-34,97,109,51,10,-35,-14,-4,5
-40,-127,-116,-73,-6,10,17,21,5
127,127,127,67,22,-4,7,14,5
-83,-44,25,-5,-17,-31,-54,-69,5
-2,25,54,25,16,37,20,7,5
38,92,110,30,3,-51,-58,29,5
-31,-26,-31,-1,-3,66,-30,16,5
60,-9,-61,-3,2,-49,58,95,5
-19,-21,-34,-21,-22,-65,-76,-86,5
-60,-22,-33,3,14,53,-11,92,5
15,-55,-66,-21,-33,-60,-63,-26,5
-15,-17,-33,-6,-4,-56,-29,2,5
53,11,-1,4,14,68,93,22,5
95,121,112,25,15,45,12,-8,5
-128,-117,-103,-91,-54,-78,-47,-56,5
48,127,127,37,8,22,8,-3,5
19,-13,-39,-20,-4,14,-7,-5,5
34,38,56,-21,-17,-1,1,-30,5
58,23,79,40,31,22,38,15,5
-87,-112,-128,-57,-22,-25,-7,2,5
-69,-36,-15,-42,-17,-64,-28,-22,5
9,47,85,31,17,37,33,21,5
22,24,38,17,-4,-11,-7,-70,5
63,18,14,33,57,97,57,30,5
9,16,2,14,-19,-26,1,67,5
-54,-64,-85,-13,-3,63,51,19,5
4,11,0,6,5,59,74,-16,5
27,0,-17,6,6,34,13,33,5
-6,-2,-11,0,0,-32,45,-10,5
1,-21,-31,-7,-18,-113,-31,2,5
114,79,65,11,29,95,103,44,5
-64,-20,-24,13,17,78,15,-58,5
-97,-82,-31,-66,-81,-72,-78,1,5
-9,65,79,27,15,111,72,-17,5
61,13,-10,-10,-2,57,-2,25,5
55,100,127,49,18,21,12,4,5
-48,-82,-36,1,17,4,18,16,5
-34,-93,-55,-30,-7,-61,-14,-32,5
-59,28,89,31,1,-64,-44,9,5
86,58,45,-13,-18,-48,-28,-21,5
22,35,55,37,19,23,7,-17,5
-56,-23,-29,-15,-4,-7,-30,1,5
-5,-5,-26,11,3,-23,7,33,5
27,-26,-33,0,-2,61,-17,13,5
33,14,-20,-4,-4,-74,-20,-15,5
-4,-15,-41,-13,-6,26,-16,3,5
-49,-33,-21,16,27,74,68,-95,5
-24,5,11,-10,-17,-65,-13,0,5
85,16,-24,7,7,127,54,39,5
1,59,91,76,32,87,69,-23,5
76,48,-70,-78,-36,25,17,21,5
-107,-118,-107,-90,-26,-18,15,-59,5
-16,78,83,44,29,56,48,33,5
84,52,55,36,8,-3,-19,-25,5
43,-33,-43,-15,-3,-1,-21,25,5
75,0,40,24,16,-5,43,39,5
-30,23,74,-3,0,-43,-47,0,5
-47,-13,30,-19,-9,-38,-16,-29,5
-17,34,63,36,13,-20,-41,-2,5
11,40,28,9,1,3,33,41,5
-14,-38,-50,-14,-13,-38,-37,-38,5
5,-5,-31,-11,-9,12,-62,-18,5
-20,-35,-35,-12,-15,-85,-36,53,5
1,-4,-28,13,14,76,69,-3,5
-21,-11,2,2,-5,-38,14,35,5
-22,-32,-48,-28,5,38,71,8,5
16,0,-35,-14,-16,-74,-59,-8,5
0,28,97,52,12,80,-14,-12,5
-10,127,123,68,29,16,47,11,5
-70,-90,-85,-117,-53,-73,-23,3,5
-128,-57,62,-6,-14,-20,-6,-17,5
66,109,90,49,11,-3,-2,13,5
81,64,77,41,29,65,53,-4,5
47,20,8,12,3,4,16,22,5
18,-27,-21,3,20,58,31,-23,5
-67,-50,-57,-21,-28,-110,-127,-63,5
19,-11,-17,-9,2,52,31,62,5
14,2,-9,-5,4,-13,-6,-18,5
7,-9,-21,-4,0,38,54,24,5
-5,9,-8,0,-6,-12,-1,6,5
-10,-39,-48,-10,-5,-6,20,-25,5
98,51,64,32,27,107,-11,5,5
-82,-33,-17,-35,-43,-88,-72,-25,5
-14,-6,21,-7,-9,16,37,-4,5
64,43,33,29,22,45,19,24,5
52,-35,-72,-6,8,33,26,2,5
-44,11,103,-2,-3,-42,6,-24,5
-8,-60,-3,-3,-18,-57,-63,0,5
-19,-104,-85,-78,-17,20,25,50,5
116,127,127,49,15,-43,-22,-59,5
-31,20,47,29,-5,4,-18,26,5
-71,-3,-16,-1,4,40,54,54,5
32,23,18,23,-6,-25,-27,-47,5
-99,-60,-75,-24,-19,-62,-26,-3,5
90,23,-31,3,1,-4,-22,20,5
-5,-1,-36,1,13,43,71,-35,5
8,-5,-33,-12,-12,-28,-37,1,5
-21,-11,-30,-5,-2,37,45,25,5
4,11,2,17,16,17,18,-16,5
33,27,26,7,0,-10,-19,18,5
11,21,5,-6,17,67,3,-23,5
7,-21,-25,-6,-19,-81,-32,-13,5
-46,14,58,18,7,40,36,4,5
4,-16,-60,-25,-6,-9,-13,-18,5
18,88,95,16,8,33,35,32,5
-73,-63,-43,-40,-20,-51,-12,19,5
42,23,56,13,9,13,5,-17,5
87,50,4,10,-3,-24,-31,17,5
-44,6,10,4,12,80,36,-31,5
-21,-10,-10,1,-26,-67,-76,-67,5
21,1,-46,-4,4,58,51,56,5
-8,-13,-5,-9,-1,24,-9,-80,5
-4,-36,-60,-11,-22,-96,-77,-25,5
10,9,0,-3,15,71,109,28,5
-3,-19,-46,-22,-35,-125,-107,-3,5
-17,7,15,2,0,47,-14,-11,5
5,-42,-44,-6,9,47,54,12,5
18,43,27,11,5,32,46,31,5
60,117,113,41,29,43,34,20,5
-84,-81,-96,-51,-19,-47,-30,-66,5
40,40,27,7,-4,-59,-35,45,5
-76,-69,-53,-22,-6,-5,-21,16,5
17,79,88,35,19,35,20,-3,5
66,-4,-13,-25,-9,-33,-15,28,5
19,-75,-67,-35,-8,2,10,5,5
-70,15,117,55,19,15,-4,-24,5
-8,-10,-13,-18,8,81,44,-10,5
-25,41,70,21,-27,-110,-84,-2,5
33,5,-16,-2,11,106,22,-32,5
64,47,17,7,-10,-37,-11,73,5
-8,-54,-69,-16,-5,16,-36,-38,5
-12,1,-14,1,-13,-36,-67,3,5
-27,-20,-9,-1,-8,-7,48,15,5
29,24,17,5,16,-20,60,33,5
-24,-38,-56,-23,-1,22,20,-18,5
81,23,-2,-3,5,36,37,23,5
-41,22,88,27,-16,-128,-69,7,5
33,66,45,-7,12,127,84,51,5
-83,-114,-116,-104,-61,-115,-62,-71,5
-72,47,124,40,24,78,51,13,5
-52,78,76,18,1,18,-35,-9,5
39,-85,-92,-34,-5,5,0,36,5
71,19,34,0,10,-4,5,4,5
-6,-11,13,-3,2,-15,-26,-48,5
-29,-10,7,-6,4,-3,-14,-6,5
-2,31,31,24,6,10,8,-16,5
43,8,-12,5,-16,-64,-58,-60,5
-37,-30,-35,-1,21,77,87,27,5
14,-1,-17,-10,-33,-88,-78,23,5
1,-8,-17,0,11,98,36,-61,5
-18,-10,10,4,-7,-43,-30,49,5
38,42,31,25,10,38,97,35,5
30,3,-19,1,8,35,15,-25,5
-89,-99,-78,-66,-52,-128,-125,-38,5
60,110,127,72,33,89,64,68,5
-5,-40,-116,-58,-12,-9,-27,-60,5
-66,-17,-15,6,13,20,38,11,5
-30,38,108,36,12,-7,2,33,5
22,-41,-42,0,11,26,48,26,5
32,74,125,45,1,-40,-39,-1,5
37,-79,-128,-32,-4,13,8,10,5
40,98,127,30,10,8,-4,-1,5
-78,-90,-99,-32,-7,-7,-19,-8,5
12,50,78,19,1,5,-7,50,5
-12,-31,7,-20,6,43,33,-27,5
-1,-7,3,11,-1,-51,-17,-20,5
23,18,49,2,-9,-2,-29,7,5
-6,-39,-46,-16,10,84,81,22,5
4,35,44,-1,-19,-81,-16,-10,5
3,-1,-32,-11,-10,-13,-21,-39,5
0,57,80,14,7,9,26,-2,5
-67,-78,-61,-37,-14,-35,-25,10,5
62,109,127,36,21,56,23,13,5
-23,-82,-122,-43,-8,-21,-5,-11,5
-103,-78,-87,-73,-29,-34,-17,-18,5
22,-21,-23,-1,0,-3,15,44,5
53,44,64,8,-2,-14,-19,-51,5
10,-22,-32,24,4,-15,-21,21,5
29,46,51,25,11,32,9,14,5
-5,-30,-19,-10,10,81,26,-5,5
-17,-4,5,-5,-23,-95,-59,10,5
56,45,5,17,15,122,73,70,5
-44,-26,-41,2,2,8,55,-93,5
7,14,1,-7,-20,-49,-1,48,5
-7,-5,-22,8,19,123,127,-4,5
30,82,112,22,13,-39,7,-7,5
16,-84,-95,-13,5,10,42,27,5
-64,-44,-51,-11,-4,-51,-25,-16,5
-34,23,70,16,6,5,-45,-3,5
-4,-46,-57,-15,-4,20,6,-32,5
38,127,127,93,38,46,3,18,5
58,-17,-26,-21,-14,-41,-36,-17,5
-60,-128,-128,-92,-30,-23,-18,19,5
-19,39,109,7,11,18,15,-5,5
22,41,37,17,0,-17,-16,-58,5
20,68,74,12,27,90,33,33,5
43,-1,-41,15,-16,-67,-63,-12,5
-48,-56,-95,-25,-22,-43,-50,32,5
33,-17,-6,10,1,38,10,-15,5
-22,21,26,22,21,64,92,-4,5
-37,-10,-4,-14,-3,-35,-69,-28,5
13,29,26,11,3,28,-13,7,5
10,-24,-41,-22,-16,-68,-10,7,5
45,23,9,4,-11,-35,-18,10,5
24,69,89,27,19,71,25,0,5
-43,-88,-98,-13,-7,-7,3,-33,5
-10,40,67,-6,13,63,23,46,5
-14,-87,-52,-63,-27,-70,-37,-37,5
-33,82,89,62,5,-6,-6,-13,5
60,-38,30,-24,8,17,11,13,5
-6,-43,-20,-35,-12,4,22,28,5
-84,-39,-17,8,-3,-36,-26,6,5
77,48,30,-8,4,62,46,9,5
-46,19,34,39,25,0,27,-37,5
-5,17,10,0,-26,-83,-88,-32,5
23,39,55,24,-1,24,36,12,5
11,-40,-54,3,21,87,120,77,5
38,56,22,10,13,-16,18,-19,5
12,-36,-54,-17,-17,-9,-104,12,5
5,55,82,15,-5,9,45,-112,5
-16,-82,-85,-29,3,21,9,39,5
-8,-2,8,-20,-23,-73,-33,23,5
-4,79,95,24,18,23,20,-4,5
-14,-70,-74,-38,-14,-16,-32,21,5
8,57,113,18,15,23,16,-23,5
93,110,115,72,13,10,-14,-2,5
-21,-120,-128,-71,-14,-21,-12,4,5
-47,18,64,63,19,3,-12,9,5
-86,-75,-128,-116,-35,-15,1,-38,5
-12,-31,-99,-30,-29,-97,-67,6,5
85,100,112,59,19,34,51,56,5
54,12,5,10,10,54,-1,-19,5
-21,-31,-13,21,12,-24,8,31,5
-59,20,35,16,7,60,9,-42,5
-4,-35,-67,-20,-4,0,51,22,5
4,-7,-31,-15,-6,-20,-102,-9,5
14,15,16,22,-8,-21,11,-9,5
43,15,-6,-25,-14,-19,-4,11,5
-29,-12,12,11,10,41,83,1,5
18,23,40,8,10,6,0,17,5
-21,-6,44,-1,-13,-14,-24,-13,5
-4,-89,-118,-52,-10,25,28,-6,5
-33,30,68,10,-12,-51,-40,-19,5
15,56,56,12,4,10,26,23,5
-52,-100,-103,-39,-11,-19,-20,0,5
6,7,72,16,6,14,22,4,5
33,13,41,9,4,-4,-5,-4,5
26,23,17,-1,1,22,16,-19,5
24,48,52,25,11,1,0,21,5
-51,-26,-21,-2,-14,-45,-45,-7,5
-2,-5,-24,4,5,13,-40,-15,5
32,16,4,1,-7,-58,-10,21,5
22,-9,-25,-2,0,63,-9,7,5
-10,21,26,-1,-4,-24,66,-12,5
14,-5,-26,-8,-13,-60,-28,12,5
-3,58,74,15,11,36,-56,-45,5
-20,-82,-82,-20,-20,-70,-15,37,5
2,21,50,15,14,72,10,-14,5
26,8,2,24,18,23,37,-8,5
-61,-75,-76,-36,-16,-29,30,20,5
20,97,104,42,15,12,25,-19,5
71,56,47,31,11,17,-23,-3,5
-48,-92,-103,-50,-3,61,45,21,5
18,44,54,9,-6,-81,-1,27,5
-33,-19,11,-13,-3,-21,-29,-15,5
-7,7,21,4,-7,-5,-15,6,5
7,20,33,14,4,24,10,5,5
41,-25,-50,-3,11,61,33,4,5
46,30,17,7,-11,-62,-14,0,5
-43,-12,-16,-3,-2,6,6,-34,5
-10,-12,-20,-6,-3,50,29,-5,5
1,-10,-20,-5,10,-13,-37,-6,5
-11,-3,-10,-2,-7,-7,-29,-54,5
4,60,97,10,6,46,43,21,5
-40,-68,-91,-19,-2,-15,-12,-23,5
-13,-40,-35,-22,-12,-7,21,-26,5
15,39,56,34,13,36,20,0,5
10,-43,-82,-40,-13,-73,-50,-1,5
15,87,113,23,8,34,-1,-14,5
-44,-93,-107,-26,-9,-23,1,13,5
7,-1,21,-1,10,22,16,5,5
3,-11,-4,-1,1,23,30,49,5
37,38,53,20,2,-31,-40,-51,5
-23,5,-19,-10,-11,-3,-9,29,5
31,16,16,-2,4,21,17,-13,5
21,14,16,8,19,44,21,35,5
-37,-22,-20,-18,-13,-57,-36,1,5
-19,6,20,-8,-10,-5,-45,-28,5
-20,-13,-34,-15,-6,10,-11,8,5
7,7,23,-11,7,11,11,19,5
10,-5,-3,9,10,35,55,11,5
31,43,25,25,0,-24,5,24,5
-19,-20,-28,7,-2,-19,-15,-44,5
12,50,70,19,-1,26,-4,13,5
-21,-62,-96,-33,-7,3,4,3,5
39,-14,-29,-4,-7,-14,5,-2,5
2,1,0,24,10,4,0,-1,5
-19,-13,-46,-22,-8,-8,-16,-27,5
22,37,82,6,2,28,21,24,5
-79,16,71,20,4,-24,-2,-11,5
6,-43,-68,-12,-4,-17,-1,-2,5
36,-12,-17,10,-10,-11,-20,35,5
-24,11,15,10,-6,-16,-32,-59,5
12,6,8,5,8,59,36,0,5
46,41,48,12,5,-28,5,-19,5
-6,-25,-33,2,12,69,10,23,5
-43,-26,-37,-23,-39,-103,-29,-10,5
-15,4,23,6,0,40,-80,0,5
4,58,76,1,4,13,41,19,5
-7,-97,-121,-24,-1,31,23,-20,5
77,98,127,56,27,22,32,5,5
48,-29,-65,-39,-10,-34,16,7,5
-99,-42,-51,-21,-15,-21,-13,40,5
-52,-9,31,5,-1,-23,-28,-67,5
-13,-24,-25,12,6,15,-11,-14,5
20,103,114,28,11,17,27,19,5
22,-81,-76,-68,-15,-9,-15,10,5
4,33,88,6,-10,-41,14,-10,5
7,-15,-18,-13,21,41,10,9,5
47,51,53,12,-4,15,-37,-7,5
-68,-22,-17,-9,-19,-54,-53,-47,5
-35,-12,-13,1,2,25,48,7,5
26,-10,-22,-9,-1,50,90,33,5
30,-3,-21,2,7,-35,31,-18,5
22,90,127,26,14,27,-32,-20,5
-22,-100,-125,-24,-12,-24,34,13,5
-31,13,28,6,2,0,-83,-2,5
-3,30,75,11,-3,-29,23,-10,5
-8,-70,-97,-5,-5,3,4,26,5
14,57,90,13,2,3,-26,-20,5
65,79,76,18,5,28,16,21,5
-39,-3,-22,-3,5,-24,11,17,5
-44,-66,-53,-38,-22,6,-20,24,5
37,87,103,12,8,26,-3,-1,5
-77,8,49,-2,-12,-55,-32,-16,5
51,32,71,11,-3,36,4,-5,5
33,40,-2,17,17,-1,2,-7,5
-36,-53,-76,-14,-3,28,3,0,5
31,-1,-23,-12,-34,-103,-111,27,5
-60,-32,-32,6,5,87,48,-22,5
28,-3,1,1,8,28,13,-44,5
1,7,-8,-7,-2,-17,-17,2,5
2,-28,-55,-5,3,17,38,39,5
14,-19,-9,-6,-10,-40,-38,-9,5
12,7,-36,-3,6,39,21,-57,5
8,9,-13,0,-8,-52,-31,-44,5
-20,30,92,-11,-5,2,10,-5,5
-3,-114,-128,-2,6,7,21,48,5
37,127,127,73,30,34,39,45,5
-89,-92,-98,-55,-20,-11,-11,3,5
41,32,43,-6,3,-5,6,-9,5
-66,5,44,-10,-7,-12,-14,-23,5
17,11,52,9,0,-6,5,11,5
65,50,59,28,10,8,3,1,5
-18,-42,-55,-5,9,30,7,3,5
28,26,20,4,0,-1,-4,-8,5
-18,-24,-21,-6,-9,-52,-33,2,5
-33,2,0,-4,-15,-39,-2,2,5
-4,-12,-17,1,6,64,31,13,5
74,99,88,19,9,4,-10,-17,5
-19,-36,25,-13,18,39,45,13,5
-27,-47,-33,-21,-22,-69,-48,-10,5
-23,-40,13,-4,-2,-9,-9,-7,5
-31,62,74,17,3,12,16,6,5
76,-22,-24,-17,-14,5,11,11,5
36,87,127,40,24,41,26,22,5
-38,-50,-101,-26,-12,-33,-17,-25,5
-40,-114,-128,-35,-8,-12,-8,3,5
-31,81,95,16,-3,-9,-5,0,5
49,-37,-42,-15,-2,9,-8,-3,5
19,29,36,-4,2,-12,1,22,5
-7,18,35,2,-5,4,22,4,5
3,14,26,7,10,54,-1,-3,5
18,-8,-42,6,-8,-82,-48,2,5
23,44,54,13,-1,6,3,-15,5
-68,-97,-128,-29,-24,-74,-45,15,5
-11,35,49,12,0,25,30,4,5
-7,-11,-40,-4,12,116,52,3,5
11,-17,-26,-2,-11,-98,-70,9,5
76,76,92,22,8,45,5,-12,5
-5,-27,-81,-18,-9,8,3,-6,5
9,53,80,-1,-8,-35,5,33,5
-89,-82,-83,-19,1,12,11,-41,5
-73,-1,31,-5,2,9,4,-3,5
14,-37,-9,-8,-5,-20,-9,27,5
-1,28,69,18,12,44,22,9,5
33,35,-36,-13,-2,15,29,0,5
47,61,92,12,-1,-37,-25,-19,5
-80,-74,-97,-23,-11,-37,-28,-36,5
48,23,35,21,14,78,29,17,5
-12,-8,6,0,-26,-110,-60,2,5
40,15,22,7,22,127,63,-4,5
31,27,26,-3,-37,-128,-95,-4,5
-29,-12,-22,-2,1,52,32,-30,5
7,-3,3,13,10,72,29,-13,5
10,-17,-40,-2,-1,-5,16,35,5
9,25,64,11,6,1,6,-6,5
-16,97,95,32,11,-32,-8,-7,5
10,-84,-73,-36,4,35,27,35,5
-5,62,81,35,4,-46,-13,2,5
-1,-25,-73,-61,-15,11,5,10,5
-27,-46,-38,-15,2,0,-5,1,5
45,127,127,30,4,-15,-11,-32,5
-80,-125,-126,-42,-13,-14,-10,16,5
38,89,92,34,18,35,33,12,5
-10,-7,-39,-17,-11,-34,-31,8,5
-43,-82,-106,-20,-2,35,18,2,5
16,-34,-30,-21,-18,-72,-48,-5,5
27,56,96,23,23,97,84,13,5
17,-7,9,-12,-13,-86,-61,-43,5
6,4,-3,17,5,92,52,4,5
-24,12,4,-3,-3,-13,-14,-34,5
-9,-33,-53,4,10,49,18,10,5
21,23,37,14,8,-2,-1,21,5
-12,-24,-41,-9,-8,-74,-18,-5,5
-10,11,-10,-10,-1,18,3,17,5
30,-14,-13,2,0,-10,3,-29,5
3,9,43,-8,-4,-7,-24,-21,5
-48,39,79,14,3,2,-6,27,5
57,35,39,17,15,29,30,-3,5
-14,-128,-128,-42,-18,-41,-24,26,5
-88,-35,-53,-19,-6,2,-12,-10,5
-10,48,111,23,8,15,-4,-40,5
20,33,38,7,4,-7,5,16,5
7,64,89,23,5,14,-3,-15,5
40,-52,-100,-18,-19,-78,-31,-8,5
24,5,-10,-1,9,69,29,31,5
-38,-34,-46,-6,2,12,15,-12,5
-21,17,16,6,-4,13,-31,-51,5
-5,-9,-15,-3,-3,-21,-12,12,5
22,26,43,-13,-10,-59,-23,2,5
114,127,127,127,127,127,127,112,5
-39,-18,-19,2,2,-18,-4,-31,5
-11,20,59,15,8,37,33,18,5
44,41,64,12,8,10,-13,-8,5
124,105,98,127,127,127,127,127,5
35,53,40,7,-1,-13,-1,25,5
-19,-43,-42,-27,-9,33,17,-14,5
28,42,55,20,6,-23,10,21,5
70,0,0,77,114,98,121,127,5
-7,8,28,19,4,-22,17,37,5
-44,21,78,18,-5,11,-24,-20,5
9,-21,-46,-15,-2,49,33,12,5
72,70,36,115,115,54,49,124,5
-14,-14,-33,-6,-15,-57,-34,-9,5
28,28,23,16,5,44,3,-11,5
-10,-13,-1,1,2,4,25,14,5
127,127,123,127,127,127,112,127,5
-55,-100,-98,-36,-5,0,18,17,5
32,66,109,3,11,2,18,21,5
-7,-19,-30,8,1,-8,-23,-8,5
127,127,127,127,127,127,127,81,5
74,26,1,-8,1,12,-5,17,5
-64,-31,-50,-1,2,13,23,8,5
-28,-7,-15,0,0,-10,2,1,5
127,127,127,127,127,127,123,119,5
-8,18,59,8,4,49,17,6,5
36,4,12,-2,-10,-45,-14,0,5
19,51,73,15,16,21,43,24,5
105,127,127,127,127,127,127,127,5
2,45,46,16,10,23,24,-9,5
41,-57,-64,-25,-7,-22,-24,-22,5
18,-5,8,-1,-4,-33,-21,11,5
116,109,101,120,127,127,127,122,5
8,16,-37,-4,-5,-43,-32,6,5
37,54,-5,13,9,43,16,-15,5
-29,-95,-128,-35,-13,-31,-38,-46,5
127,127,127,127,127,127,127,127,5
-17,25,34,9,-1,-9,-2,-9,5
-39,-10,-4,-1,19,101,89,22,5
-41,22,39,-2,-29,-86,-89,-72,5
124,99,127,127,124,125,124,121,5
-78,-87,-46,-36,-4,17,13,-3,5
22,17,72,2,-8,-58,-30,5,5
10,59,114,21,11,19,15,-2,5
126,127,127,127,127,127,127,127,5
30,11,63,12,-2,-38,-14,5,5
-24,17,33,7,5,3,7,5,5
-15,13,71,3,1,16,8,0,5
127,127,127,127,127,102,102,115,5
22,61,68,28,11,35,17,6,5
-1,5,11,-9,-5,-5,6,15,5
9,-57,-104,-7,9,20,11,8,5
61,127,127,127,127,127,127,99,5
-25,-7,14,0,-3,18,14,-26,5
-13,25,1,4,-3,-29,-4,-9,5
39,27,11,0,2,31,21,12,5
118,127,124,127,127,127,121,100,5
-10,13,26,-13,-12,-8,-17,-19,5
4,-25,-41,-11,-3,31,12,-5,5
13,5,26,-25,1,0,11,9,5
44,3,0,84,117,118,119,127,5
25,115,127,35,11,-6,1,6,5
3,15,35,2,-13,-62,-39,-2,5
-78,-123,-128,-58,-10,15,11,-18,5
58,127,127,127,127,127,127,127,5
-1,-1,49,-4,2,6,19,20,5
12,29,36,21,14,38,9,15,5
-8,-34,-59,7,-12,-50,-41,-18,5
127,127,127,125,118,117,118,127,5
-14,-43,-97,-8,-9,-65,-24,35,5
21,-5,-10,-3,-2,-27,-27,-69,5
10,31,30,14,6,30,24,38,5
127,127,106,127,127,127,127,127,5
7,-24,-18,-12,-6,-7,-13,-10,5
-16,-5,13,5,-3,-8,-8,5,5
40,85,100,16,4,6,7,17,5
96,28,0,101,123,124,125,127,5
-7,14,-19,4,1,2,-19,-42,5
-11,-6,22,-3,-7,-31,-8,2,5
3,14,11,19,5,15,11,-4,5
127,124,118,124,127,127,127,127,5
-7,-20,18,-8,-3,-13,-12,27,5
10,8,28,6,-1,-4,1,-25,5
-5,31,56,9,3,15,-2,-16,5
100,116,120,127,127,127,127,127,5
-33,-2,-2,-8,-30,-65,-87,-30,5
-6,-7,-54,-10,-4,43,11,20,5
13,-1,0,-4,0,20,24,24,5
116,87,36,100,127,127,127,107,5
23,46,99,29,15,16,23,6,5
-39,-48,-35,-41,-10,-30,-21,6,5
-44,-67,-56,-25,-7,-23,-16,-19,5
127,0,0,53,112,127,127,127,5
51,-15,-91,-15,3,21,15,21,5
-41,7,-26,5,-4,-58,-35,-7,5
-34,-4,9,3,-11,-25,-11,-7,5
127,127,127,127,127,127,127,127,5
29,21,18,4,-2,-21,9,10,5
38,19,17,12,12,40,20,24,5
-10,6,-8,-4,-1,0,-8,-27,5
127,127,127,127,127,118,127,127,5
-62,-89,-77,-29,-3,18,6,-35,5
30,-24,13,-6,-1,2,11,15,5
-34,-67,-51,-1,-8,-29,-19,-9,5
-12,46,40,9,2,0,-2,-8,5
1,25,-37,0,3,17,10,-2,5
10,42,24,9,-5,-21,-8,14,5
24,3,-22,-23,-4,-2,-22,-39,5
-31,-112,-103,-27,-6,10,12,4,5
-20,27,83,2,-3,-23,-15,-34,5
-5,12,40,12,6,41,22,16,5
37,59,34,19,0,-47,-13,-4,5
7,-5,-17,0,-1,24,-4,1,5
3,-18,-27,-3,3,-31,-7,-12,5
22,38,27,5,-1,4,-7,3,5
2,0,2,1,13,71,47,-5,5
-45,-14,-18,-12,-15,-85,-72,-4,5
3,-14,-18,5,7,30,27,20,5
13,90,127,27,11,4,20,-6,5
-28,-52,-41,-18,-9,-1,-21,-10,5
50,-34,-49,-17,0,15,18,25,5
-18,-55,-82,-16,0,15,3,-28,5
13,12,59,6,2,3,2,7,5
-30,-7,-70,-7,-6,-23,-4,18,5
2,31,37,15,6,15,12,2,5
25,40,94,12,0,15,10,25,5
-27,-114,-128,-37,-5,-9,4,-28,5
-4,2,27,7,-3,-18,-20,19,5
5,23,53,6,2,8,14,-21,5
-3,30,30,1,4,15,-3,2,5
-3,0,18,13,7,12,0,-8,5
29,62,88,10,4,4,-5,22,5
-18,-48,-119,-19,-9,-27,-14,-11,5
24,26,50,1,-6,-18,-4,16,5
-36,-47,-94,-20,-1,60,26,4,5
19,25,61,4,-1,-43,-25,-3,5
52,110,114,30,21,72,46,2,5
-73,-99,-103,-59,-35,-97,-68,-1,5
1,30,96,-7,-22,-67,-67,-45,5
-12,26,68,11,10,45,38,18,5
-16,55,122,25,10,22,19,-15,5
20,-58,-75,7,20,68,44,8,5
23,47,78,21,3,-23,-5,4,5
13,-49,-82,0,-9,-48,-30,4,5
-1,-24,-12,-6,-4,-7,-2,4,5
-10,17,5,13,4,8,3,-22,5
-3,-13,-25,-11,-3,-4,-1,4,5
25,24,37,12,11,26,11,17,5
-13,-24,-16,-6,-6,-22,-6,20,5
38,68,114,22,4,7,-2,5,5
-47,-79,-112,-29,-4,2,18,41,5
15,3,-19,1,-2,-5,-11,-27,5
1,48,53,7,-2,-8,-6,-14,5
4,-72,-68,-27,-4,4,3,26,5
31,19,31,13,6,6,8,-6,5
-58,3,44,5,3,35,17,3,5
41,21,44,11,-2,-73,-15,8,5
-9,40,24,12,7,55,-4,-27,5
-43,-47,-73,-19,-8,-47,-23,10,5
16,-10,-10,-10,-3,14,20,-12,5
-13,-18,-33,-2,1,17,2,-15,5
21,45,38,17,2,17,20,8,5
4,-10,-18,-5,5,-17,-17,-2,5
6,12,24,3,-6,-7,-4,-26,5
3,7,28,-3,-1,35,9,4,5
5,36,67,10,1,-18,9,-5,5
3,-46,-85,-14,3,51,27,18,5
-6,19,44,0,-5,-35,-25,-4,5
3,-14,-15,-3,0,8,9,30,5
-45,-58,-56,-22,-11,-22,-19,-6,5
17,17,26,2,-1,8,8,-13,5
10,37,47,5,4,3,7,27,5
-4,-61,-99,-26,-8,-6,-14,-35,5
-26,46,94,21,10,0,3,5,5
4,4,-34,0,-2,1,-4,-11,5
11,-20,-42,-13,-4,-8,5,28,5
5,24,69,2,1,7,3,-25,5
15,-29,-103,-14,-14,-15,-13,9,5
3,35,76,10,-8,-74,-29,-14,5
-24,-8,-4,5,2,47,10,0,5
-9,-41,-90,0,7,35,33,13,5
-13,18,45,15,-3,-10,-13,-6,5
5,25,45,9,5,6,22,-44,5
13,-3,-20,-11,-11,-59,-54,-37,5
-11,-23,-38,-25,-9,-6,-9,11,5
14,-17,-42,-17,9,22,27,38,5
1,14,25,-4,5,32,3,-6,5
34,22,38,14,8,8,5,-17,5
-35,56,82,12,-4,-21,-11,-3,5
8,-87,-104,-48,-12,-4,-5,0,5
-59,-18,15,5,-4,-3,10,24,5
33,-1,39,9,0,-1,6,1,5
-6,0,21,5,1,-5,-10,-3,5
16,55,85,18,5,3,4,-9,5
8,10,-6,4,-2,6,-4,-1,5
-3,-22,-40,-9,-1,17,13,0,5
9,6,-7,5,8,11,6,-8,5
-20,7,-22,-2,-12,-46,-23,-34,5
10,-53,-98,-10,-3,1,-6,3,5
-30,6,26,8,5,40,18,14,5
36,30,82,9,3,-33,-2,13,5
23,84,127,41,13,40,20,-13,5
-55,-90,-70,-63,-26,-66,-52,-18,5
-11,14,78,1,6,34,28,15,5
22,45,83,5,-6,-50,-32,3,5
26,-15,-30,13,13,30,16,-19,5
-28,48,101,9,-5,-2,-22,-24,5
39,-33,-114,-12,2,-4,1,34,5
-83,-43,-50,-8,-4,9,-7,-72,5
3,10,-10,5,4,-13,2,5,5
43,53,52,24,9,38,18,40,5
2,10,18,3,-3,-22,8,-22,5
10,-32,-66,-13,-4,8,-7,-11,5
-11,2,19,-6,-4,-12,-7,36,5
28,5,8,14,6,19,14,-38,5
-25,14,-14,-11,-8,-21,-18,-2,5
18,29,51,11,6,19,9,8,5
-31,-71,-66,-30,-1,9,17,-16,5
22,30,44,5,8,12,11,27,5
-27,-30,-15,-4,0,-7,-13,-18,5
-10,3,14,9,7,9,7,2,5
41,90,104,16,-9,-30,-27,23,5
-16,-47,-86,-1,9,24,14,10,5
-26,-27,-77,-20,-9,-10,-8,-1,5
13,-44,-55,-16,-15,-24,-22,13,5
-22,6,16,6,7,30,21,3,5
69,31,25,15,5,3,13,11,5
-34,36,70,18,7,14,21,2,5
-1,-9,-21,-12,-13,-48,-35,23,5
1,-19,-36,-3,0,7,-3,-3,5
10,29,36,9,0,18,5,-24,5
-1,4,20,-1,1,-3,4,5,5
-28,-40,-48,-24,-6,29,13,0,5
7,-31,-79,-6,-6,-40,-16,-35,5
-18,10,29,6,2,3,13,38,5
43,24,30,-12,0,9,-1,9,5
7,-7,-35,-1,7,5,0,16,5
-3,2,23,-7,-2,-2,7,14,5
-19,-5,4,1,-1,-2,-6,11,5
-24,18,43,8,0,-17,-6,1,5
-18,-36,-62,-15,2,23,14,21,5
-8,-3,26,6,-6,-28,-18,-12,5
32,10,-18,13,18,65,41,14,5
8,0,-2,-8,-28,-107,-78,11,5
35,31,49,7,11,68,25,-21,5
-25,-28,-12,-1,-5,2,10,12,5
-4,0,-19,-5,-11,1,-8,-5,5
11,6,3,7,5,-20,2,-1,5
-1,1,-7,11,-1,-7,14,36,5
-3,8,4,-5,5,41,21,4,5
11,9,47,7,-9,-74,-44,-5,5
-10,-34,-81,-15,-3,47,20,0,5
37,22,48,14,0,-17,3,4,5
-28,27,39,7,8,28,20,38,5
-18,-22,-22,-10,-6,-8,6,-21,5
-33,-57,-95,-24,-1,-12,-24,0,5
46,20,35,10,-5,-9,-16,-17,5
-21,22,37,4,3,9,7,20,5
4,15,49,-8,0,-5,-1,-13,5
-32,-26,-26,-1,-1,9,12,18,5
-2,0,0,-3,-4,-10,0,-7,5
23,10,9,-1,4,7,-6,-17,5
1,12,11,-5,-9,-37,-41,8,5
30,15,23,9,-2,21,19,17,5
-15,-3,-3,-1,5,48,13,-27,5
15,-5,-30,0,-7,-68,-37,30,5
-16,-4,-5,-4,5,26,6,-33,5
27,25,25,5,6,26,23,-5,5
-11,-44,-82,-15,-11,-57,-24,31,5
-20,-12,-11,-5,-14,-13,-14,-14,5
12,55,72,21,10,15,11,-1,5
11,-1,-11,-4,-1,15,12,-9,5
-15,-42,-87,-23,-5,-7,-1,19,5
-35,-35,13,-7,-5,-11,-8,-17,5
12,15,39,11,-4,-14,-2,24,5
4,27,42,12,1,20,-3,-51,5
-23,-8,-32,2,9,25,10,12,5
64,-7,-32,-13,-5,-22,-15,-14,5
-77,-34,-60,-4,-2,13,2,-25,5
11,22,37,13,11,15,-1,15,5
0,-5,-6,-7,-9,-19,-15,-23,5
12,22,35,4,-2,-12,-12,-1,5
19,-9,-3,-1,4,1,28,18,5
5,3,32,5,-4,-13,-21,-14,5
8,-23,-79,-6,1,23,13,14,5
-6,-5,0,-7,-2,20,11,-4,5
7,5,22,-4,-2,-19,9,19,5
-15,11,53,6,6,-1,-14,-3,5
-30,-38,-24,-19,-10,-34,-6,3,5
26,17,19,10,4,40,12,-22,5
-1,-17,-29,-13,-6,-8,-7,7,5
11,5,4,13,3,2,11,-1,5
47,120,127,46,13,11,8,16,5
-33,-110,-128,-64,-17,-20,-22,-40,5
-54,-36,-13,-11,-14,-19,-7,-21,5
-18,4,32,-1,0,3,6,18,5
-7,23,62,6,3,-8,-3,-1,5
15,26,23,15,6,25,14,8,5
25,15,-6,4,9,17,15,13,5
7,-17,-46,-10,-4,-4,2,-19,5
17,-5,-6,-3,-7,-40,-45,-6,5
-41,3,9,14,4,18,15,10,5
3,-18,-51,-5,-5,-12,-8,7,5
-3,-13,-34,2,5,34,31,20,5
11,49,75,9,5,1,9,6,5
-4,-68,-110,-13,-6,-7,-6,-21,5
-35,-11,3,5,2,-1,13,-8,5
6,42,88,14,5,1,-10,-7,5
39,1,-35,10,11,23,23,24,5
11,14,14,-14,-11,-47,-12,-30,5
-74,-42,-27,-11,1,30,9,-8,5
9,37,53,9,3,0,7,11,5
-6,5,47,6,-2,2,-11,-14,5
19,-1,-38,-6,7,13,13,-1,5
30,-11,-37,-14,-11,-3,-13,13,5
-23,14,41,7,5,9,1,-22,5
-23,6,9,1,3,-28,-30,-6,5
-8,-5,-15,-8,-9,-25,-8,7,5
-3,2,16,-1,-4,13,16,-19,5
24,37,63,13,9,38,22,38,5
16,-25,-80,-15,-16,-58,-47,-16,5
2,-36,-52,-18,-8,0,1,20,5
-31,3,43,0,-1,-4,4,0,5
-12,-21,-15,-1,1,9,9,13,5
-16,13,38,-3,0,19,20,-26,5
8,8,22,12,2,-17,-20,-8,5
34,37,65,6,3,5,0,12,5
26,-28,-83,-12,-5,-10,-6,1,5
-31,-19,-41,-15,-1,-6,19,23,5
-40,13,25,4,3,39,-8,-17,5
10,5,9,-7,-8,-52,-36,-51,5
-3,-14,-30,2,-1,6,10,16,5
6,-8,-24,4,1,4,-3,-14,5
-11,10,45,-8,0,16,11,10,5
-4,-2,-1,7,9,18,32,-15,5
12,9,-11,-8,-3,2,-32,-22,5
10,22,21,4,-2,-25,-2,-11,5
-22,-4,13,0,0,13,2,2,5
16,-3,-19,4,7,13,9,11,5
2,42,97,10,1,-8,11,7,5
-27,-100,-84,-25,-9,-12,-8,11,5
30,38,76,10,4,3,-5,-31,5
-22,-15,-9,-13,-2,0,-3,21,5
-1,1,-35,-2,2,11,12,2,5
-4,16,26,15,7,17,0,-48,5
25,23,43,10,4,-13,0,18,5
35,-21,-76,0,3,59,34,32,5
-20,35,39,18,-6,-80,-46,-50,5
-37,9,34,4,-3,27,-9,-14,5
0,-56,-89,-5,-10,-52,-10,-2,5
7,15,33,15,6,30,19,17,5
18,-12,-21,1,1,15,12,-1,5
5,55,76,12,7,20,23,24,5
3,4,-25,-3,-8,-32,-42,-48,5
-20,-27,-53,-14,-3,5,6,-27,5
-31,-7,14,-2,2,-8,0,20,5
31,23,0,5,2,22,18,12,5
7,25,78,-3,5,22,17,30,5
21,-37,-87,-17,-10,-41,-25,-14,5
-38,-28,-34,-8,-5,-27,-13,-3,5
0,27,51,4,5,24,15,9,5
15,27,38,4,6,22,17,33,5
-25,-30,-68,-19,-6,-22,-26,-46,5
3,11,29,-5,4,9,20,22,5
-4,-11,-15,-8,-1,-12,-7,17,5
16,7,2,13,1,7,1,-4,5
-6,18,46,5,-3,-2,-20,-31,5
8,9,23,-3,-4,11,-4,-18,5
-20,-51,-57,-11,-17,-56,-50,17,5
-6,-7,-15,1,2,1,33,14,5
1,19,35,11,4,11,14,12,5
61,46,64,-3,0,23,-1,-17,5
-16,-46,-23,-15,-8,-43,-16,-5,5
-31,-1,42,12,6,11,-2,7,5
-38,2,28,-6,-4,-8,6,29,5
37,-8,-20,2,0,12,19,8,5
22,8,-29,-2,-1,6,-3,6,5
-3,-8,-27,-2,0,-5,-15,-15,5
43,40,90,14,6,29,13,11,5
-27,-17,-3,-11,2,-25,9,24,5
-8,-18,-26,3,-3,3,-17,-38,5
-33,-19,-25,-6,0,-3,0,15,5
28,27,31,14,2,-11,-5,-5,5
2,-5,-26,-7,-2,27,6,10,5
16,9,20,4,2,-22,-7,8,5
16,24,12,-2,-5,4,17,14,5
-25,-3,20,10,-2,-14,-23,-6,5
-11,-58,-106,-13,-6,0,9,48,5
5,26,27,1,6,24,26,6,5
15,9,1,2,3,3,0,4,5
23,23,57,-8,-4,-9,4,35,5
-12,-39,-68,-7,-9,-45,-32,-7,5
-25,1,-4,-6,3,22,15,24,5
-2,6,39,2,-3,-6,-13,-47,5
-18,-29,-59,-12,-2,10,6,1,5
-16,15,38,8,3,3,-1,-13,5
25,37,53,7,-1,-2,9,14,5
3,-13,-19,-1,-2,9,1,2,5
-23,-28,-74,-11,-9,-30,-18,-8,5
43,21,33,1,1,6,-4,-39,5
-46,-42,-73,-17,2,2,3,7,5
-17,-3,2,-4,-5,0,-4,-8,5
19,6,21,11,7,3,-4,4,5
-16,-18,-31,-13,-10,-27,-16,4,5
37,37,73,21,2,23,9,-3,5
18,24,33,4,7,22,18,11,5
-20,-54,-99,-22,-4,5,0,-15,5
-17,-7,3,6,-2,-19,-4,35,5
13,2,15,3,7,34,30,2,5
-11,-14,-24,-5,-12,-58,-41,-30,5
15,17,29,7,-6,-10,-17,-1,5
-10,26,50,5,5,28,7,7,5
22,-2,-19,-4,-3,4,5,15,5
-25,-39,-53,-5,-1,12,6,-57,5
32,28,74,5,-2,-9,-5,4,5
-35,-13,-41,3,-2,-6,-9,-14,5
-39,-11,-33,-7,-7,-25,-10,-12,5
11,22,50,5,6,16,10,24,5
-9,-41,-58,-4,-2,-11,0,-9,5
20,3,14,2,5,11,13,-8,5
8,15,26,10,9,21,-4,-8,5
6,29,50,-12,-7,-29,-21,22,5
-16,-38,-43,-10,-9,-20,-32,-51,5
-22,-1,24,8,2,19,26,52,5
3,-4,-7,-3,-3,4,1,-49,5
10,3,1,0,5,15,7,24,5
-1,38,66,17,1,4,-2,-14,5
4,-16,-16,-14,0,-14,3,-4,5
-3,-2,-10,2,0,23,-1,9,5
-17,-22,-30,-7,-10,-39,-16,-2,5
22,16,12,4,4,19,23,17,5
12,42,40,26,2,-12,-3,0,5
23,-4,-25,10,-3,-6,-8,0,5
-36,-30,4,8,5,11,11,-24,5
-36,-38,-56,5,8,23,37,42,5
-10,-9,-4,-2,-6,-5,-15,14,5
35,54,97,13,2,-9,1,14,5
29,8,-35,-6,-3,12,6,11,5
0,-2,-14,-10,1,-7,9,38,5
19,-6,-30,-10,2,14,1,-31,5
-32,-10,-8,-12,-1,-11,6,21,5
21,9,9,-8,-7,-45,-45,-1,5
-32,-8,-23,-9,-2,16,-7,-2,5
30,14,30,-9,-1,20,20,35,5
-19,-30,-74,-15,-7,-32,-12,-35,5
28,5,1,6,12,32,27,35,5
11,38,60,11,2,3,-20,0,5
-10,-26,-34,-17,-20,-67,-49,-26,5
2,2,19,-4,0,19,12,19,5
-4,3,-1,2,-1,13,12,-22,5
1,-50,-52,-19,-2,14,7,0,5
-23,1,12,6,8,41,27,12,5
52,16,24,-3,-4,-49,-26,2,5
-60,7,7,-7,0,0,6,17,5
-27,8,14,-3,-2,-8,0,-14,5
7,11,34,6,2,2,-5,2,5
-5,-33,-81,-11,-3,-3,-1,-5,5
18,10,-2,13,5,13,15,18,5
8,10,8,1,-2,-14,-11,-16,5
-12,-6,-16,0,-2,-1,3,12,5
13,42,80,16,4,22,19,-3,5
15,19,15,-1,0,-12,-5,13,5
-22,-45,-63,-4,5,67,26,-44,5
15,-5,-16,-18,-22,-95,-68,5,5
-21,-25,-24,-4,-2,29,10,13,5
-11,15,27,15,2,30,26,11,5
14,43,77,-7,-9,-52,-23,4,5
-2,-15,15,-5,6,33,15,-46,5
-11,-1,38,3,7,0,5,11,5
-24,-21,4,-4,-11,-18,-21,-5,5
11,12,22,11,2,-4,8,17,5
15,19,13,11,7,18,22,31,5
5,30,44,5,-4,-23,-20,-6,5
7,-55,-93,-5,0,6,2,-7,5
-5,7,-4,7,3,3,3,12,5
4,7,-11,0,2,-6,23,12,5
-5,-10,-4,-6,-4,3,-2,-1,5
12,26,30,1,2,3,4,3,5
-1,-2,-25,1,1,9,17,8,5
-23,-35,-79,-9,-1,-38,-26,-13,5
11,-24,-42,-2,-2,46,3,-19,5
8,18,45,-1,-7,-67,-34,-26,5
4,-24,-67,-18,-2,20,1,2,5
-12,-6,5,5,6,24,27,8,5
43,15,22,1,5,-5,6,-7,5
-30,-4,-33,-11,-4,4,-16,12,5
-18,-12,15,-5,-6,-42,-21,9,5
5,7,1,-2,-3,20,2,-14,5
12,-10,-27,-10,-4,-8,6,12,5
20,21,39,11,11,51,38,8,5
12,24,36,10,-3,-46,-22,0,5
-5,-3,0,4,1,1,-4,-10,5
-40,-13,-1,-6,-5,-7,-15,9,5
20,-9,-18,-4,-2,13,16,23,5
17,26,47,12,8,14,19,19,5
9,-2,20,11,0,-2,-2,-23,5
0,-4,-43,-14,-9,-24,-22,-7,5
-31,-25,20,-6,-2,-1,4,-11,5
-3,-13,-5,-8,-1,11,11,11,5
7,31,92,9,-4,-2,-25,-14,5
-11,-22,-22,1,4,-8,11,36,5
7,19,29,-4,0,-10,-11,-12,5
-6,-4,-42,5,2,17,7,-13,5
28,34,57,-9,-2,31,20,-4,5
-37,-32,-62,-4,-2,-28,-5,10,5
7,-17,-43,-3,-5,-3,-2,16,5
17,14,46,4,0,-1,-11,-18,5
-29,-11,-29,2,8,30,25,30,5
25,14,20,3,-2,-9,-12,-36,5
6,-6,-7,-9,4,-3,15,3,5
9,27,51,7,2,9,13,11,5
-22,-29,-64,-11,-11,-21,-24,-7,5
-7,4,21,3,9,42,15,-3,5
-3,-18,-12,-1,-22,-94,-53,-10,5
8,37,60,8,3,26,19,17,5
13,0,5,0,2,11,15,9,5
-37,-59,-73,-16,-7,0,-1,4,5
1,9,41,5,7,38,19,4,5
-4,-12,-16,-10,-6,-45,-30,-9,5
-16,-9,-2,6,3,4,-3,-15,5
17,34,36,3,0,-10,11,7,5
36,-11,-41,2,1,34,8,27,5
-27,-4,-8,-1,-2,-13,-14,-8,5
-24,11,17,3,4,5,0,-11,5
18,12,5,2,1,11,3,12,5
-19,-19,-31,-12,0,-25,-8,13,5
15,-1,2,-5,-7,-7,4,1,5
-25,-4,34,2,4,26,19,10,5
-11,-1,37,-6,-5,-24,-26,-8,5
5,1,-20,0,1,-11,-2,-1,5
0,-14,-30,-4,-2,17,17,-20,5
14,4,15,5,2,-9,-18,12,5
15,27,23,4,6,45,26,-10,5
4,-22,-43,1,0,-15,-9,17,5
-8,19,26,0,-2,1,7,1,5
33,-9,-2,-8,-5,-21,-12,-19,5
-38,-15,-52,-12,-10,-23,-17,4,5
-5,22,57,8,-1,5,-19,-22,5
-11,-47,-104,-7,2,-19,2,20,5
1,48,105,15,-1,26,-2,-35,5
18,-52,-77,-9,-1,-2,0,-17,5
-27,-5,5,-7,-2,-1,8,-13,5
16,-2,19,0,-2,-2,0,31,5
-1,-5,-12,0,3,3,4,-7,5
34,44,73,10,1,-18,-4,-4,5
-24,0,-5,0,-1,9,-5,-9,5
-1,-3,8,-4,-3,7,-1,-11,5
7,-23,-82,-15,-9,-2,-7,-24,5
-3,19,50,13,5,12,6,6,5
6,5,27,-4,6,7,19,7,5
-16,0,-9,-7,-13,-61,-58,-40,5
1,1,30,-1,-11,-13,-7,10,5
7,-16,-18,4,5,12,24,39,5
21,19,50,11,8,38,14,-14,5
-14,7,42,0,-1,7,10,-7,5
8,10,-9,-3,1,-13,-5,25,5
-28,-15,-17,-3,-3,-2,-3,-21,5
7,-6,-13,2,-2,13,4,15,5
21,23,32,8,2,-15,-2,15,5
28,34,60,3,2,3,0,-16,5
-56,-47,-52,-8,-4,-14,-9,-9,5
-5,-6,17,-4,-2,24,18,5,5
-20,-12,-17,-4,-2,-31,-24,-11,5
10,-26,-48,-4,-3,-1,5,18,5
35,44,56,15,7,17,0,-9,5
-21,3,12,-3,-11,-45,-23,-17,5
14,-22,-72,-6,1,41,14,-16,5
-3,11,-27,-3,7,-5,18,19,5
-2,-12,10,-1,-4,-2,-14,-8,5
-14,6,3,-5,0,-1,4,-40,5
-15,-28,-19,-1,5,38,15,9,5
-2,32,56,7,-1,-17,1,-5,5
4,-44,-89,-20,-12,-43,-5,25,5
-6,-5,1,-6,-1,16,-12,-23,5
10,-1,18,5,3,-19,-1,16,5
-3,-18,-41,-12,1,68,24,-9,5
-4,19,22,6,1,-16,-5,0,5
24,5,-12,0,-7,-32,-30,-4,5
-19,8,5,5,3,13,11,11,5
-13,-39,-56,-7,-1,-8,-6,4,5
18,30,67,12,6,6,10,12,5
-2,27,49,8,2,2,7,20,5
-8,-36,-65,-11,-3,10,-10,-32,5
-2,-14,-3,3,-3,-25,-6,9,5
-9,5,-2,-13,-7,-3,-14,-16,5
-2,-3,-2,7,3,7,12,29,5
27,30,64,3,2,0,-2,1,5
4,7,15,14,0,-7,7,8,5
-2,34,70,7,4,5,0,-1,5
-21,-77,-108,-14,0,35,15,7,5
-5,4,26,-8,-4,-46,-12,-10,5
7,-14,-6,2,-8,-15,-27,11,5
23,32,57,15,5,17,24,5,5
-1,28,28,-1,1,14,0,-27,5
-4,-11,-34,-1,5,18,12,-2,5
-7,0,-1,-5,-2,-13,-1,39,5
4,3,4,8,1,-13,-15,-23,5
-2,-12,-26,-8,-12,-21,-15,25,5
-7,-3,9,4,-1,15,7,8,5
4,10,2,-7,2,7,7,-1,5
-6,-6,-17,1,-3,-2,1,7,5
17,12,22,2,3,6,0,-11,5
0,-6,-10,2,0,-5,4,9,5
-10,28,46,1,-6,-17,-16,8,5
-19,-14,-6,-4,-1,11,-1,-25,5
-10,-52,-96,-8,3,-7,10,19,5
5,21,41,-2,-5,5,-11,-3,5
0,-16,-17,1,7,0,11,10,5
28,33,60,7,3,11,-4,-14,5
-12,21,19,-4,-6,-20,-6,-23,5
-5,0,17,0,-2,21,7,-8,5
-12,-35,-41,-6,0,-20,-2,0,5
-2,-7,-10,-11,-3,-2,-4,9,5
18,28,41,10,-1,-6,3,-11,5
14,-3,-15,2,9,51,22,13,5
-13,7,-7,-1,-4,-31,-26,-39,5
-7,-28,-64,-3,-3,13,12,12,5
-17,-8,-15,-3,4,-1,6,-8,5
6,13,25,1,-7,-27,-19,5,5
3,-5,-9,-1,4,36,9,-8,5
34,29,45,11,-2,-28,-13,11,5
-31,-9,-10,-5,-2,-1,-5,-4,5
6,1,2,2,0,15,10,24,5
6,10,23,-6,7,33,16,4,5
-4,-37,-68,-10,-8,-80,-29,-20,5
24,6,4,2,6,56,7,8,5
-21,-4,-2,-11,-7,-41,-16,-11,5
8,32,77,12,7,22,10,15,5
3,-28,-62,-15,-9,-24,-11,22,5
-10,-3,4,1,0,0,-9,-7,5
6,-17,-32,-2,-1,-3,7,32,5
-13,-1,-7,-1,2,25,4,-41,5
-3,35,75,4,-4,-36,-19,-4,5
15,-20,-24,2,-1,-15,8,39,5
0,10,13,0,0,13,2,-23,5
4,-26,-45,-5,-4,-10,-2,8,5
-3,10,5,-1,2,19,17,-4,5
12,-3,5,5,0,-6,-6,5,5
-8,9,36,0,1,-15,8,3,5
-16,-15,-45,-7,0,9,4,-17,5
2,-8,-22,-6,-2,3,-13,12,5
-3,-12,-48,-10,-3,-2,9,-13,5
-6,0,-18,6,2,-3,-7,-2,5
-10,-23,-14,-17,-6,-23,-18,5,5
-4,11,42,11,5,33,15,-32,5
21,25,27,-1,-4,-22,-9,13,5
-10,-14,-25,-1,0,9,2,5,5
-19,-7,-28,2,-5,-19,-3,5,5
-22,-19,-12,-3,3,42,20,5,5
15,5,12,2,-1,-22,-2,22,5
11,21,34,7,1,14,-3,-29,5
5,4,10,7,-1,-25,-4,16,5
8,-6,12,1,3,-8,-15,-26,5
-11,16,21,4,2,18,8,10,5
2,2,5,-4,0,-2,0,11,5
7,-10,-17,3,-1,-13,-4,-19,5
-8,-4,-9,-2,-1,13,0,13,5
6,6,17,2,2,2,6,-5,5
-8,-7,-40,-10,-6,-18,-14,-19,5
12,12,22,2,-2,0,2,5,5
-7,17,57,8,2,4,9,4,5
-6,-11,-28,-10,-5,1,-10,-16,5
3,-22,-41,-8,-4,2,3,10,5
7,-13,-22,-3,-3,13,10,15,5
-23,1,1,5,-1,-13,5,-17,5
4,16,26,9,3,-16,-11,6,5
27,7,24,3,-3,0,10,49,5
-23,-5,-4,-10,-4,19,-18,-67,5
3,-5,-25,1,5,14,16,5,5
28,21,37,4,2,10,17,1,5
-10,-8,-14,-1,7,38,48,-1,5
-7,-11,-14,2,-8,-76,6,28,5
-8,3,19,-2,-1,9,6,-25,5
5,-2,4,-1,0,9,-15,-16,5
12,12,6,-5,-7,-34,-38,-9,5
-4,18,26,9,7,31,4,16,5
-21,-41,-84,-14,0,-3,-14,1,5
-10,-11,14,-3,-8,-21,-31,18,5
-4,-25,-37,-11,-2,-6,-13,-48,5
-2,8,11,0,3,20,0,15,5
20,50,76,7,2,-2,4,30,5
-16,-32,-71,-7,-2,7,0,-31,5
12,6,17,0,-1,8,5,15,5
-5,-1,17,0,-5,-40,-29,-13,5
-13,-4,-11,-8,0,17,6,24,5
-2,26,42,7,5,8,24,-26,5
-11,-7,-4,0,-10,-49,-34,-11,5
5,-24,-58,-10,1,10,15,4,5
17,25,44,13,0,17,11,9,5
-20,-29,-45,-6,0,-18,-5,3,5
-6,10,2,-11,-2,16,6,3,5
4,8,56,6,-1,3,0,-16,5
-11,-12,-28,-1,-1,0,0,5,5
19,11,6,10,2,-1,-2,-34,5
-5,7,15,-2,-3,-3,-6,5,5
14,26,57,4,1,-8,2,29,5
8,-32,-58,-17,-1,-2,-7,-30,5
-25,4,18,2,-1,13,-1,-5,5
-8,6,20,1,3,-5,3,2,5
4,-18,-34,-6,-8,-16,-13,-2,5
9,-15,-24,-6,-3,-8,5,-2,5
9,16,32,12,4,30,18,21,5
-14,-4,-18,0,-1,-25,-19,-20,5
-5,-20,-27,-4,2,24,11,25,5
15,-2,-2,2,-2,0,-3,5,5
-14,-5,-3,2,-2,-8,7,9,5
3,27,74,9,-2,2,13,9,5
0,-18,-82,-13,-1,-12,-18,-35,5
-3,11,19,4,-2,-9,-4,5,5
-5,-19,-37,-9,4,11,-1,21,5
6,5,27,9,2,0,1,7,5
-13,-5,-14,-5,-3,1,-13,-12,5
38,32,29,6,0,9,14,26,5
-30,6,17,-3,1,-9,3,-16,5
-9,-36,-55,0,5,12,-2,-36,5
7,27,57,7,2,5,8,18,5
20,-8,-45,-8,-3,4,-2,15,5
-3,-2,4,-1,3,-10,4,18,5
0,-1,-10,0,-1,2,-4,4,5
13,17,27,7,0,6,13,-51,5
-15,6,33,0,-2,2,-17,-8,5
-5,-2,-7,3,3,-8,1,9,5
-1,-9,-18,-10,-10,-32,-30,18,5
9,10,12,11,1,-2,3,9,5
-6,1,22,0,1,17,1,-5,5
16,-4,-24,-6,-4,-2,2,-18,5
1,13,43,8,6,20,20,3,5
5,-7,-18,3,3,4,1,19,5
-9,25,50,4,-7,-18,1,3,5
15,-37,-69,-23,-11,-23,-17,0,5
-24,-3,16,9,6,26,20,-8,5
-9,-19,-35,-15,-5,-17,-5,8,5
-41,-13,-7,5,2,-9,-12,-14,5
29,51,51,9,-2,-13,-5,19,5
7,3,3,-6,-1,22,11,6,5
-12,-10,-37,-4,3,9,17,3,5
-5,-14,-3,-2,-2,-18,-9,6,5
-7,-22,2,0,1,3,2,8,5
4,10,22,4,3,-1,-1,-10,5
3,9,23,-1,0,20,3,-7,5
-4,-62,-70,-8,-1,-1,10,7,5
8,10,40,-1,-5,-7,-11,-21,5
0,-20,-52,-1,0,-4,9,17,5
2,47,111,11,4,24,11,15,5
21,1,-44,-13,-3,-23,-8,-24,5
-12,-13,-39,-3,-2,2,1,10,5
3,8,15,9,0,2,0,3,5
-15,-12,-16,3,1,1,-2,-9,5
0,26,39,6,-1,12,6,0,5
6,-23,-42,-13,-5,5,2,-4,5
-5,16,27,0,2,-6,3,5,5
-3,-11,-10,-1,-3,-10,-17,-31,5
-22,-31,-75,-10,1,17,9,12,5
-1,-8,4,3,-4,1,0,17,5
21,33,57,9,1,3,-6,-37,5
10,-24,-76,-14,-1,-10,10,20,5
-21,8,43,6,3,-2,-9,7,5
-3,18,22,5,0,-22,-19,-30,5
8,-2,-14,-8,1,20,16,8,5
18,7,45,4,-1,19,18,23,5
-10,-18,-22,-6,-5,-21,-13,-13,5
-11,20,38,12,1,-3,0,13,5
11,13,33,-5,1,20,5,-4,5
9,-18,-71,-5,-2,1,-2,-9,5
9,19,74,9,8,48,26,-2,5
-43,-48,-71,-7,-17,-93,-54,-10,5
-9,-15,-6,-3,-7,-4,-7,-16,5
5,9,10,-3,1,4,4,8,5
10,3,-7,0,2,12,13,15,5
19,18,41,5,3,17,4,11,5
-6,2,-29,-6,-2,-11,0,2,5
13,15,26,3,-1,-17,-13,8,5
11,-11,-31,-5,-2,-8,0,-10,5
-14,5,24,-1,4,27,25,8,5
2,-7,-25,3,-1,3,-7,4,5
-13,2,28,-2,-2,-15,-16,-23,5
9,8,4,-5,-8,-22,-15,9,5
16,-9,-12,-2,6,72,29,2,5
-31,-10,-3,-1,-4,-54,-19,-14,5
-10,14,23,8,0,-7,-10,1,5
4,11,15,2,-5,-5,-3,-18,5
26,-4,8,-2,1,5,-1,-43,5
12,1,-12,2,3,19,19,15,5
-19,4,20,2,-4,-3,6,19,5
-42,-22,-5,-19,-2,-19,-28,-44,5
13,0,-22,-6,-1,7,10,4,5
8,2,11,6,3,5,1,8,5
1,-7,-29,-1,2,-7,-4,5,5
9,32,85,11,-3,-14,-3,-6,5
-2,-35,-65,-9,-3,13,6,21,5
4,-12,-11,-3,-1,-4,-22,-48,5
-15,-12,-1,-7,-6,-25,-2,10,5
4,-7,-14,5,3,28,15,15,5
-1,22,42,7,6,-12,0,3,5
-1,0,0,0,-1,11,9,8,5
1,-8,-29,-9,0,3,-4,-10,5
-6,-5,-30,6,0,20,4,12,5
-3,14,31,5,-3,-35,-4,22,5
1,-3,-6,-7,-3,23,3,-17,5
8,7,6,6,2,19,-4,-15,5
8,-9,3,-7,-5,-39,-7,3,5
-8,6,27,1,4,24,16,25,5
13,-13,-24,6,2,-1,2,14,5
-10,-3,-2,-19,-4,-17,1,15,5
-25,-12,-25,-2,0,7,-3,-23,5
0,17,29,2,-2,1,-5,-11,5
2,9,20,2,2,-7,0,17,5
17,1,17,3,-2,7,8,-6,5
15,2,-30,5,2,-9,-3,14,5
-6,14,12,-1,0,7,0,-1,5
-15,1,40,-1,-1,-8,-1,0,5
-5,-28,-75,-21,-1,11,10,22,5
18,13,28,-18,-4,3,-2,15,5
-12,-7,-9,-12,-2,-20,-16,-32,5
-10,-21,-60,-14,-7,-24,-12,7,5
15,19,32,13,-2,14,11,10,5
-17,7,8,8,-1,0,-1,-8,5
6,-13,-10,0,-9,-33,-17,2,5
15,15,30,10,0,6,9,13,5
-3,-16,-11,4,-2,-24,-10,-13,5
-2,6,-26,8,6,56,8,6,5
-5,21,47,10,3,1,9,-9,5
16,-10,-13,-7,0,-6,-1,15,5
-3,-13,13,2,-1,11,-4,0,5
-29,-2,16,1,-9,-66,-25,-9,5
-6,7,10,6,2,14,2,-19,5
7,16,37,-12,1,11,1,0,5
20,3,-20,0,3,8,16,16,5
-7,-3,29,3,6,10,5,7,5
21,-28,-79,-8,-2,-4,-15,6,5
-32,-9,-2,-8,-10,-21,-4,-10,5
-14,-15,-19,5,1,25,-1,-3,5
17,19,36,1,3,-1,21,8,5
18,-10,-29,8,4,3,-4,-9,5
-11,11,1,2,-1,-3,1,21,5
-9,-5,-6,-2,-1,2,-6,-49,5
1,-12,-15,1,-5,-18,-7,-15,5
2,20,48,2,2,13,7,15,5
8,-9,-50,2,0,-1,2,-5,5
-6,18,46,3,3,-12,-2,5,5
8,7,11,6,5,23,9,-25,5
-10,-59,-100,-25,-10,-46,-5,-6,5
11,19,73,7,3,43,6,19,5
-35,-39,-85,-8,-1,-23,-16,-33,5
10,10,23,0,-4,9,10,6,5
0,-3,-2,1,3,40,22,36,5
8,5,2,2,-7,-63,-37,-12,5
10,6,8,-1,-3,-2,-6,-2,5
-2,-8,-11,-7,1,9,-1,-4,5
3,11,17,1,2,20,18,10,5
0,1,-8,2,-2,-15,3,-17,5
8,27,46,7,2,1,-12,-1,5
8,-19,-60,-2,-5,-14,-6,8,5
-29,0,19,1,5,23,6,4,5
-3,-29,-25,-4,0,5,0,18,5
-10,3,14,10,-1,-14,-4,7,5
17,31,39,-4,-1,14,1,-22,5
-3,-36,-63,-11,-4,-12,-6,6,5
-11,9,33,6,0,6,-2,-10,5
-4,-11,-6,-7,-5,-7,0,-4,5
8,2,1,1,5,14,6,20,5
1,30,53,10,-3,-25,-22,-8,5
-21,-14,-31,-12,-2,15,4,-17,5
4,24,60,8,4,-15,-3,5,5
-5,-37,-61,-6,0,11,2,3,5
25,33,64,7,2,8,14,-12,5
-8,-19,-37,1,-5,-2,-9,22,5
-4,23,25,3,2,11,7,-22,5
5,-9,-26,0,3,8,-6,12,5
-1,1,15,-6,-7,-9,-2,-8,5
11,11,5,2,-1,-10,2,1,5
-5,-9,-8,-8,-7,-2,-2,19,5
-22,-7,9,-2,-1,-15,-12,-72,5
14,3,-16,1,0,12,0,10,5
-4,0,-5,-2,-2,-6,-12,-6,5
-4,-5,-20,-6,-3,-2,5,27,5
8,-17,-16,-4,-4,1,8,1,5
-16,-5,-10,-5,-1,2,7,9,5
21,37,43,5,3,-3,1,-9,5
-1,-32,-35,0,-3,-2,-7,2,5
14,19,46,3,0,8,8,30,5
-30,-28,-65,-10,-10,-23,-24,-33,5
-20,1,3,-9,6,20,15,22,5
9,4,0,1,-1,-17,-2,2,5
-1,-2,-6,2,-4,12,-4,-4,5
4,21,52,3,-1,-27,-18,-10,5
-7,5,20,3,-1,8,12,0,5
1,-10,-9,-10,-10,-18,-22,-19,5
5,-6,-19,-7,-7,-22,-13,24,5
1,8,5,1,0,15,11,5,5
4,1,11,5,3,12,8,-19,5
1,-3,-3,-6,1,1,8,13,5
9,16,25,7,0,-8,3,23,5
0,-3,-7,-6,-4,-2,-5,-39,5
-7,-19,-27,0,1,10,13,24,5
3,21,29,4,-1,-14,-17,-50,5
-5,12,41,-1,-1,0,4,29,5
8,-18,-13,-8,4,17,17,11,5
-40,-31,-28,-6,-5,-19,-13,-12,5
2,-4,8,3,4,22,12,18,5
11,31,35,4,-2,-19,-11,-9,5
3,-1,12,4,1,5,3,22,5
21,5,-23,-1,-1,-32,-8,-6,5
-23,-5,2,-5,0,44,5,14,5
-14,-5,-2,2,1,-6,8,-1,5
-6,11,46,5,-3,-21,-18,-8,5
8,-42,-104,1,-2,26,20,16,5
4,-2,1,3,2,-16,2,23,5
-6,-7,-8,0,-1,18,4,-29,5
2,5,10,-1,-3,-36,-5,9,5
2,39,102,10,2,-1,-11,-11,5
2,-21,-20,-1,-2,12,7,-20,5
-6,-29,-76,-5,9,19,13,5,5
4,3,-12,-1,-6,-6,-3,13,5
9,8,-3,5,-2,-7,-9,-12,5
10,14,26,2,0,6,9,8,5
-31,-13,-17,-8,-5,-12,-6,0,5
-8,-2,3,5,2,13,0,-15,5
3,-17,-58,-10,3,2,4,12,5
20,5,6,3,0,3,-3,-1,5
5,15,23,6,-5,-38,-27,-43,5
-2,-12,-20,-14,-8,-8,-8,21,5
-22,-3,1,-6,1,25,-1,-9,5
-11,4,14,4,4,8,15,21,5
-1,14,44,5,7,18,12,20,5
5,-22,-51,-7,-7,-30,-25,1,5
10,1,8,1,-2,0,6,3,5
13,4,-11,-8,-5,5,6,12,5
1,11,27,2,-1,-8,-2,-29,5
-1,-14,-29,0,2,16,7,3,5
13,21,57,3,3,6,2,16,5
-19,-27,-72,-3,5,10,4,-5,5
26,6,8,3,-11,-50,-17,46,5
-36,3,32,-7,3,24,3,-46,5
-1,4,22,-2,-4,-9,-4,-11,5
14,4,10,3,1,-10,-8,-14,5
-21,-16,-28,-8,0,5,2,21,5
17,13,9,3,1,0,0,-11,5
-9,5,5,-3,-3,7,-3,-28,5
5,33,103,9,0,-7,3,-2,5
-7,-44,-47,-14,-6,-27,0,13,5
23,20,32,9,7,30,15,3,5
-27,-21,-22,-4,3,20,15,-8,5
8,18,16,4,-8,-56,-37,1,5
-23,-3,-6,-2,2,22,7,-24,5
18,9,4,6,3,-15,-2,8,5
12,17,23,2,-2,6,-4,28,5
-14,-21,-15,-14,-5,14,3,-33,5
22,0,-15,-4,5,23,16,11,5
4,28,16,6,-3,-25,-6,-3,5
6,-26,-41,-11,-3,-7,-6,-7,5
-29,-15,-7,1,-3,-10,-4,13,5
3,-2,8,1,0,11,-3,-1,5
7,4,25,1,1,10,5,17,5
3,11,11,-7,-4,-19,-2,13,5
0,-3,-19,-7,-1,-1,0,-4,5
-2,9,25,6,3,15,4,1,5
-19,-12,-2,1,-7,-38,-21,-45,5
-1,-15,-31,0,-2,-17,-3,8,5
-1,-18,-48,-14,-5,50,20,7,5
4,14,15,6,14,-1,5,4,5
-6,7,18,-1,-5,5,2,16,5
-15,4,23,4,2,-9,-3,-33,5
1,-22,-69,-4,-3,6,-4,-15,5
18,17,47,5,-3,-5,-5,10,5
-7,-21,-45,-9,2,14,12,15,5
-7,3,16,2,-4,-13,-7,-8,5
-6,2,3,-1,5,22,21,18,5
3,5,-2,3,-6,-28,-22,-26,5
-9,10,5,2,6,-1,-1,18,5
30,5,31,1,-7,-14,-6,8,5
-17,-47,-81,-11,2,11,4,-3,5
1,3,7,0,2,1,9,10,5
0,-10,12,5,4,32,10,-14,5
21,28,5,2,1,-33,-8,0,5
-7,8,15,1,-3,-1,-13,-16,5
-11,-19,-35,-3,-3,4,8,15,5
13,10,12,3,2,3,8,-4,5
-5,-5,-4,2,-6,-4,-17,-16,5
-4,11,27,2,5,-10,8,-18,5
1,-2,-8,-5,-5,-13,-9,-2,5
11,17,18,4,-5,2,-4,8,5
15,-29,-66,-12,4,13,13,17,5
-19,21,68,10,7,6,4,-16,5
-20,2,11,-1,-2,14,0,-7,5
-19,-43,-64,-19,-7,-18,-8,11,5
-1,-11,-22,-4,-1,4,3,6,5
21,12,8,4,-1,-17,-8,15,5
9,26,39,2,3,21,8,-4,5
-11,-3,2,7,4,3,3,0,5
7,-8,-15,-4,-2,-9,-8,1,5
28,-1,-14,-4,-2,-12,-8,-2,5
-31,-23,-36,-12,-6,-10,3,12,5
5,-1,-9,-1,-2,6,-4,-13,5
-9,6,14,4,-2,-12,-3,5,5
29,40,56,14,5,4,2,12,5
0,-44,-94,-15,-8,10,-15,-16,5
-20,-13,-5,-2,-6,-36,-19,-21,5
-5,-6,-3,1,3,28,21,14,5
-1,9,5,3,-2,-27,-13,0,5
2,6,24,5,3,14,7,12,5
10,33,57,2,6,28,10,-19,5
-24,-42,-96,-10,-8,-21,-16,1,5
-13,-15,-5,-7,-9,-19,-9,-5,5
1,5,15,3,3,-20,2,16,5
18,-4,-4,-4,-2,13,1,-20,5
17,45,95,12,7,11,7,1,5
1,-40,-82,-10,-6,8,7,6,5
0,-3,-15,-9,1,7,1,-15,5
-40,-14,-11,-3,-2,-24,-14,1,5
2,42,81,18,5,-2,-9,-4,5
-13,-28,-53,15,-1,23,4,-13,5
12,-6,-12,23,-3,-20,-11,1,5
11,0,-10,12,-1,8,17,44,5
-6,0,3,3,-7,-20,-13,-51,5
2,19,58,-4,3,20,9,16,5
7,-6,-34,-13,5,12,5,-47,5
7,-8,-36,-19,-1,-13,-5,23,5
-19,-9,-12,-12,4,10,12,33,5
10,18,20,-15,-2,-8,-3,-22,5
19,-3,-13,-6,-2,-3,-5,6,5
-17,8,29,-1,5,14,2,9,5
-11,-37,-76,-14,-2,5,2,-8,5
-1,13,18,-5,-2,-12,-3,7,5
-6,10,25,2,1,4,3,-2,5
35,21,33,8,1,5,4,-1,5
1,-26,-56,-15,-6,-8,-11,-17,5
-27,0,15,-2,0,-4,2,9,5
4,-4,-1,-2,-2,5,2,3,5
3,5,7,6,4,-16,0,13,5
11,28,55,1,1,42,17,19,5
11,-3,-9,-2,-2,-37,-21,-4,5
-17,-26,-25,-7,-6,1,7,19,5
-11,-41,-66,-11,-3,10,-3,-41,5
-16,-2,17,4,1,-10,10,28,5
15,22,42,6,2,-5,-16,-15,5
13,28,63,12,3,2,5,40,5
6,-14,-51,-9,-5,-3,-8,-23,5
-34,-15,8,2,0,-9,4,13,5
-24,-30,-34,-5,-2,6,-2,-8,5
-5,0,-3,-2,-8,-16,-18,-22,5
21,23,46,9,3,14,8,13,5
18,1,-2,6,4,19,9,-9,5
-2,0,-10,0,-4,-48,-11,8,5
3,13,28,1,4,31,7,-10,5
-3,-10,-36,-5,-2,-5,7,-1,5
-2,5,-3,5,-3,-6,-10,-11,5
2,-2,2,-35,5,16,20,13,5
-5,-4,0,-11,-1,-10,-13,-6,5
-14,-6,11,6,-1,-5,-8,-14,5
10,11,17,32,4,1,8,14,5
6,-2,-21,21,-5,2,1,19,5
-6,-6,-9,2,-1,-3,1,8,5
-9,8,18,2,0,-6,0,24,5
6,-12,-28,-6,-1,6,2,4,5
6,28,53,5,-1,10,2,-12,5
11,3,-18,-7,-1,-13,0,-2,5
-14,-20,0,-2,3,25,17,23,5
12,19,23,-10,-7,-32,-19,-2,5
-1,-32,-40,-6,1,37,5,-10,5
19,16,30,11,-5,-53,-23,3,5
-21,6,15,5,2,0,7,-3,5
-16,1,4,-3,-1,16,6,1,5
12,-9,-12,1,3,6,3,2,5
18,-1,1,4,4,11,2,-15,5
-9,11,6,-15,-3,18,10,29,5
-7,14,57,3,-11,-56,-33,-26,5
-5,-14,-58,40,-1,-8,-1,5,5
-4,-6,-14,51,2,20,6,-8,5
14,-1,-5,37,-3,-12,-12,7,5
-7,-17,-37,7,6,27,16,-16,5
9,26,50,-7,-2,1,-10,2,5
-15,-6,-8,-28,-1,-9,-2,-8,5
19,9,3,-17,-3,-7,4,13,5
10,4,21,-27,3,24,11,31,5
-4,-13,-54,-33,-3,-20,-11,-30,5
-30,-17,-13,-24,-3,6,9,11,5
-7,-3,-19,-12,2,3,-1,1,5
7,-9,-27,-15,-1,-1,-3,-5,5
13,44,79,3,1,3,13,12,5
-22,-35,-71,-20,-2,5,-5,-5,5
-5,-6,3,-3,-6,-37,-24,-9,5
14,18,31,8,7,45,13,-30,5
8,-20,-33,-6,-4,-30,-19,8,5
-5,14,29,0,-2,11,12,9,5
-13,-8,10,0,-3,-8,-9,-40,5
-2,-5,-19,8,1,17,12,18,5
-12,9,40,9,5,7,6,-16,5
13,8,14,3,0,-1,2,16,5
3,-4,-9,-2,-3,-3,5,9,5
2,-16,-32,-3,0,-17,-16,-23,5
0,8,16,1,-4,1,1,12,5
4,3,0,-3,1,-22,-12,-9,5
18,14,19,-5,-4,6,-7,12,5
-30,-30,-27,-12,-4,-5,0,-42,5
0,11,43,18,6,20,3,14,5
-8,4,-19,-16,-3,-1,0,-27,5
-12,-35,-76,-13,-1,4,10,18,5
25,42,58,8,0,-18,-17,-5,5
-27,-74,-91,-14,-7,-6,1,2,5
-6,4,19,7,-1,3,8,20,5
38,21,21,4,7,8,3,-11,5
-32,2,5,-1,-4,-6,-1,14,5
7,7,5,5,2,3,7,-3,5
23,24,46,9,3,3,2,3,5
-12,-5,-29,-13,-5,4,3,7,5
-7,-40,-81,-4,-1,-1,0,-2,5
-22,9,22,1,3,15,10,-14,5
-4,-9,-17,-2,-6,-27,-27,20,5
14,33,71,11,6,-12,7,-18,5
13,0,8,4,-2,-5,-3,5,5
17,-6,-20,5,5,26,8,8,5
-8,-21,-25,-8,0,2,10,1,5
-16,-4,6,4,-2,11,-1,-15,5
-4,1,-1,-1,4,21,17,20,5
8,23,37,10,-9,-72,-31,5,5
21,26,47,2,2,33,13,1,5
-19,-19,-29,-6,-1,-18,-8,16,5
14,-12,-36,-1,-2,8,0,-9,5
4,1,-4,-5,3,-3,-1,29,5
-42,-2,2,1,-6,-14,-26,-40,5
-11,11,39,5,3,20,8,-2,5
13,7,1,-2,-3,-14,-9,0,5
-12,-5,-9,-4,-2,11,14,2,5
18,0,-9,2,-3,-3,11,25,5
11,-9,-4,5,1,1,-5,-19,5
-4,11,24,4,0,-10,0,17,5
3,11,11,0,-3,2,-5,-17,5
-19,-13,-28,-4,1,-9,1,3,5
11,4,-8,-1,2,9,13,19,5
-2,-12,-7,-8,-1,-11,-3,-31,5
-14,-17,-33,-9,-11,-9,-17,13,5
11,10,27,4,-3,-17,0,-18,5
-11,5,16,4,3,43,1,6,5
16,9,-16,-2,-2,-42,3,-2,5
10,17,47,2,7,22,15,4,5
-42,-62,-108,-5,-1,7,-5,-6,5
-16,-12,-16,-13,-16,-51,-23,-4,5
2,-9,-3,-3,4,34,18,26,5
15,19,28,1,3,0,9,-4,5
1,0,20,6,2,11,6,-1,5
6,-7,-14,-7,0,5,8,6,5
-7,5,-2,1,-2,-2,-13,-57,5
25,4,3,-2,-1,-7,-6,7,5
-1,15,21,4,4,10,4,18,5
-8,-1,10,1,-3,-8,-29,-62,5
-5,-5,-9,-7,-5,-13,-8,36,5
3,-11,-30,-3,0,5,20,-3,5
6,20,54,2,1,2,11,36,5
-7,-17,-34,-4,-2,-7,-5,-33,5
1,-19,-42,-1,-3,5,2,13,5
-10,13,19,-1,5,11,10,-12,5
15,-24,-30,-2,-5,-12,-17,6,5
-2,21,36,4,1,-19,8,15,5
-11,6,40,4,1,22,-7,18,5
-7,-14,-41,-10,-5,-3,-2,-2,5
21,19,15,4,3,0,5,-13,5
12,9,6,-1,-4,1,-16,-37,5
-25,-6,-8,-4,1,-4,6,13,5
-10,11,46,6,0,6,4,12,5
8,-3,-11,-1,0,4,6,-33,5
-2,-5,-16,-1,-1,7,-4,19,5
1,-10,-24,-1,-5,-33,-24,-32,5
-5,13,40,1,0,7,-3,3,5
-9,-17,-21,-5,0,5,-1,-18,5
9,-6,-10,-1,-2,-3,10,36,5
15,18,41,3,1,0,16,3,5
-10,5,17,-1,0,18,-24,-46,5
15,7,-4,-9,0,-34,-14,4,5
-34,-46,-93,-11,1,22,10,12,5
-21,-15,-16,-5,-2,0,-4,20,5
-10,-29,-64,-8,-2,-17,-4,-13,5
6,12,26,7,4,17,11,22,5
25,22,46,6,-1,-1,1,-4,5
5,7,16,-1,1,-11,-7,-14,5
5,-24,-46,-6,-5,-5,7,18,5
-10,0,-1,-2,1,5,2,-22,5
9,10,25,8,5,12,14,14,5
27,20,38,9,2,-14,3,48,5
-7,-4,-15,-4,-5,-2,-25,-80,5
-13,-8,-14,-4,-3,-7,-4,7,5
14,34,70,15,4,3,6,-8,5
-12,-36,-64,-11,-1,24,27,35,5
5,17,42,4,0,-5,-1,-7,5
-8,-27,-54,-12,-4,2,-2,-10,5
0,2,6,0,1,-12,-12,6,5
-11,6,5,-4,-3,-9,-9,-30,5
14,34,80,16,-3,-2,4,20,5
-7,-36,-79,-16,-3,3,1,6,5
-7,3,17,-2,1,2,20,56,5
5,8,37,3,-2,3,-16,-44,5
-13,-21,-67,-1,-1,6,7,15,5
6,9,27,1,-5,-5,0,-5,5
-9,-5,2,-3,-5,-41,-14,20,5
-2,-13,-45,-6,-3,18,-2,-20,5
18,8,-6,1,7,17,11,6,5
-5,19,39,9,-7,-14,-13,-3,5
10,-11,-21,-4,3,20,5,-17,5
-3,22,45,6,3,2,-9,-1,5
10,2,-2,4,0,-11,11,7,5
14,19,62,5,1,-5,0,-4,5
-8,-42,-97,-9,-2,-1,0,25,5
-15,-3,10,0,-2,1,-19,-52,5
-9,-1,-3,1,3,20,16,36,5
-2,7,39,5,0,-6,4,6,5
6,10,9,-8,-6,0,2,-18,5
13,2,-12,-2,1,-2,12,21,5
6,2,28,4,2,-10,-8,-12,5
-3,24,19,-1,-1,1,-1,4,5
-12,-10,-7,1,0,-1,-9,-7,5
3,-33,-83,-4,-2,11,24,36,5
0,32,55,0,-5,-35,-26,-30,5
-4,-29,-43,6,6,27,5,-12,5
5,-9,7,-7,-11,-30,-31,23,5
1,8,17,-1,0,6,15,30,5
-18,-12,-11,-4,-2,2,-3,-3,5
-1,19,25,0,-3,0,0,3,5
-8,-7,-27,4,4,8,9,-27,5
12,7,30,6,5,9,0,2,5
-3,-12,-27,-6,-2,-6,4,18,5
0,4,3,-3,-2,2,-6,-8,5
6,12,30,4,4,33,14,-18,5
8,22,37,9,4,-16,-4,0,5
-11,-34,-93,-18,-6,-20,-8,19,5
-6,-9,-22,3,-1,1,-16,-24,5
9,26,67,4,1,2,3,10,5
-7,-26,-37,-11,-4,1,3,-6,5
21,28,57,7,2,15,2,4,5
-7,-26,-67,-11,-1,1,8,-4,5
-31,5,6,-1,-3,-6,0,-9,5
-7,8,28,5,1,-10,-16,-4,5
-5,-13,-15,0,1,-6,4,9,5
21,20,34,-1,0,2,-2,5,5
10,7,5,1,3,17,12,-2,5
-16,-1,-4,-1,3,13,19,0,5
-3,-20,-24,-1,-2,-47,-17,-38,5
-6,10,40,-4,-7,-1,-27,-3,5
0,-22,-35,-1,2,10,10,-2,5
15,21,57,9,4,24,10,3,5
10,-14,-51,-9,-3,-7,2,25,5
0,10,5,-1,2,2,11,-3,5
0,-8,-1,0,-2,-12,-11,-8,5
5,21,36,5,0,11,2,4,5
-7,-10,-9,-9,0,10,2,-4,5
-3,-20,-34,-4,-1,-10,1,26,5
6,10,0,0,-3,8,-6,-15,5
-5,-6,-24,-7,-8,-35,-17,-47,5
4,0,13,1,0,9,-7,-4,5
-12,-2,-20,-1,1,13,15,13,5
-21,-24,-48,-3,-2,-26,-20,-14,5
2,-5,27,1,-6,-9,-3,17,5
-6,-20,-72,-6,0,19,11,12,5
9,9,27,1,4,5,3,1,5
13,21,28,8,2,-10,1,-12,5
7,5,-1,-9,-4,-2,-18,-7,5
-3,-2,7,1,4,20,15,22,5
20,0,-5,2,-2,-14,-1,-2,5
-9,0,-8,-3,-4,-19,-1,0,5
-8,-8,-20,3,5,3,-1,17,5
20,58,115,17,8,17,14,-6,5
2,-48,-93,-11,-11,-30,-28,-1,5
4,12,44,3,4,10,3,3,5
-32,-30,-74,-8,-3,-5,3,-15,5
-27,-12,5,-1,-1,20,1,17,5
10,27,46,13,4,0,6,-14,5
16,5,7,-1,2,12,4,16,5
29,7,-1,-3,-3,-1,3,8,5
-31,-8,7,1,-4,-13,-8,11,5
-1,-4,-11,-3,1,0,2,4,5
8,-3,-5,-2,-2,6,7,15,5
-4,5,8,0,-1,-15,-10,-14,5
10,0,17,1,-5,-8,-17,-16,5
-14,13,14,-9,-7,-17,-3,11,5
-11,-28,-8,0,1,28,10,-11,5
8,2,-1,-4,8,10,16,21,5
23,19,28,1,-1,-16,-1,0,5
-20,-11,-16,-1,-2,10,1,8,5
-2,2,-19,-7,-2,-6,-2,12,5
-2,-27,-32,-4,-7,-18,-11,-11,5
-18,7,13,1,-2,14,13,9,5
19,17,42,7,5,-5,11,3,5
6,14,17,3,0,-1,-1,5,5
-21,-9,6,-1,-5,-13,-22,-24,5
21,1,-13,0,0,-4,-1,9,5
-8,-5,6,0,-1,10,2,-7,5
7,-1,-17,-5,0,1,-1,1,5
10,26,56,10,0,-10,-5,-7,5
-6,-29,-72,-9,-1,4,9,13,5
-3,-13,-9,-4,0,8,-6,-29,5
-13,-2,10,-7,-6,-9,5,-24,5
-5,0,7,-5,-7,-18,-30,21,5
-14,-1,-9,3,4,-7,-1,-8,5
12,-1,-6,0,-2,8,8,11,5
19,10,-9,1,0,14,9,-11,5
4,-27,-88,-2,6,-5,13,4,5
-24,-6,1,-10,-8,-12,-16,-9,5
-21,2,22,1,0,7,-2,0,5
0,8,11,8,0,-6,-2,-4,5
12,11,9,1,0,8,8,5,5
28,20,61,5,0,-3,-6,-1,5
-3,-21,-64,-2,5,24,11,13,5
-12,-17,-21,-3,-2,-21,-10,-4,5
6,4,23,-4,-9,-23,-17,-20,5
-19,-7,-7,1,1,7,2,-38,5
7,11,28,0,0,-6,7,15,5
-2,-7,-26,-1,1,15,0,0,5
-1,8,17,2,10,10,14,14,5
-2,-10,-37,-17,-11,-18,-13,-10,5
5,20,52,6,2,15,10,2,5
10,-13,-41,-2,0,-1,-3,-3,5
-21,12,27,6,0,-6,-3,9,5
6,-22,-22,-5,1,22,7,2,5
-5,-21,-35,-4,-2,-14,-3,-1,5
8,13,24,2,1,2,-1,11,5
-3,3,2,1,-6,-40,-17,2,5
-1,14,20,4,2,37,15,-4,5
5,-14,-12,-3,-10,-53,-25,15,5
-7,3,30,3,0,20,7,-3,5
13,4,-15,-4,3,3,11,26,5
-13,1,8,1,-7,5,4,-6,5
8,0,-26,-8,-6,-28,-16,-10,5
-17,-2,29,7,4,15,7,0,5
8,-3,2,-6,-2,5,-2,19,5
-4,3,2,-1,0,-13,-10,-27,5
12,28,32,14,3,17,11,10,5
-13,-14,-17,-8,-4,-38,-16,-30,5
-12,-29,-35,-2,2,51,13,-17,5
-4,15,32,9,-3,-47,-23,15,5
4,-4,-10,-3,0,16,3,-13,5
19,11,26,5,2,-4,6,7,5
-4,12,25,6,-3,-2,0,3,5
-6,-16,-20,-6,4,26,10,2,5
-2,-3,-15,0,1,2,10,13,5
-21,-11,-14,-5,-2,-17,-11,-31,5
4,6,0,4,2,12,2,1,5
11,10,25,6,2,-11,-3,8,5
2,-8,-30,-7,-1,15,-3,-17,5
-1,-5,-2,-7,-2,4,6,12,5
15,10,29,5,2,22,23,20,5
-16,-9,-31,-9,-5,-59,-43,-43,5
3,6,17,3,1,8,5,13,5
-16,-4,-1,1,-3,5,-4,-2,5
-7,-11,-22,-8,-2,1,-4,0,5
6,1,-7,-1,3,25,24,34,5
9,10,14,-2,-3,-3,-10,-25,5
-23,8,18,-10,-5,-24,-13,7,5
6,-10,-25,-3,4,14,11,-4,5
14,-7,-18,6,0,18,12,19,5
-11,-10,-11,-2,-1,-18,-13,-27,5
6,-3,-1,1,-3,-9,-9,8,5
-22,-2,3,0,-1,-10,3,-5,5
7,-14,-16,-5,3,30,21,34,5
-3,11,26,1,-12,-65,-40,-24,5
21,12,25,6,5,18,14,16,5
7,-12,-57,-5,-2,-4,-7,-21,5
-11,5,14,-1,-3,-3,-1,-1,5
-6,0,9,2,5,29,14,8,5
-1,12,25,5,-1,-19,-12,-18,5
0,-1,-5,-4,-1,5,1,10,5
-6,-13,-20,-1,-1,0,-5,-28,5
11,14,14,1,4,11,10,15,5
20,-5,-28,-6,-5,-15,-10,-9,5
-23,-1,14,4,-1,14,8,15,5
-16,-12,-10,2,1,-9,-8,-20,5
-17,-20,-26,-9,3,-6,-10,-7,5
30,11,-3,3,3,13,8,23,5
3,14,34,7,0,3,2,-5,5
7,8,18,1,-1,-5,-5,-5,5
-13,-15,-16,4,-7,-26,-17,5,5
-18,-18,-39,-10,-3,2,6,19,5
14,3,8,-2,0,5,-7,-25,5
5,18,34,4,1,-9,11,22,5
19,45,72,9,6,37,3,-8,5
-12,-46,-48,-9,-2,-19,-10,-18,5
-19,-11,15,-3,-4,4,2,-10,5
5,-12,-20,0,0,-20,-17,-16,5
-8,12,27,2,-1,5,3,4,5
3,9,-5,4,3,25,22,28,5
15,5,-33,-4,0,-6,-1,-20,5
19,6,5,0,5,-10,-9,20,5
-30,-11,-6,-6,-10,-17,-8,-16,5
7,9,14,5,7,11,9,20,5
8,-5,-1,1,-2,2,4,14,5
-5,4,4,1,1,15,10,4,5
16,22,34,2,1,-3,3,16,5
13,-14,-49,-4,-5,-10,-19,-31,5
-29,-10,-16,3,3,-4,11,31,5
10,5,46,-3,-5,-6,-6,4,5
-14,-40,-49,-11,2,16,17,-2,5
-20,7,35,0,-5,-4,-3,2,5
25,15,25,2,-1,-2,1,4,5
20,32,39,11,3,14,10,-8,5
-17,-19,-53,-9,1,-19,-5,1,5
22,8,21,3,-2,-24,-11,8,5
-23,-5,-3,-2,-3,15,1,-13,5
-2,3,8,3,0,-16,-2,6,5
20,12,16,2,0,34,17,10,5
-28,-23,-31,-4,-1,-17,-19,-48,5
-5,-28,-62,-17,-7,-9,-7,14,5
-1,-10,-20,-5,0,19,12,-8,5
2,9,21,4,0,-13,-4,-18,5
-3,19,5,2,1,4,5,20,5
18,-2,4,4,6,13,4,-6,5
-26,-6,-7,-3,-3,-10,-13,18,5
-1,-15,-23,-5,-7,-5,4,-5,5
-7,8,36,9,5,13,12,7,5
28,21,27,-3,-2,-6,-1,-6,5
-23,-19,-28,-4,0,-1,-10,-18,5
-13,1,32,11,-1,6,9,5,5
-3,-16,-40,-8,-4,-8,-6,8,5
9,7,8,-9,0,11,9,4,5
14,20,44,0,-6,-46,-18,10,5
-9,-42,-76,-11,3,15,0,-25,5
6,4,4,-3,-3,-1,1,23,5
-16,1,8,-2,-1,-4,-13,-52,5
0,-1,-10,-3,-3,22,18,-12,5
-10,-10,-4,2,0,-22,-9,23,5
13,13,10,0,-3,-12,-8,-14,5
-22,5,16,6,0,-12,1,14,5
-1,-14,-35,-6,-1,28,15,-1,5
14,5,14,1,-5,-20,-17,8,5
-21,-8,-7,-4,1,20,13,-7,5
8,15,38,4,-1,-16,-9,7,5
4,-7,-42,-3,1,12,3,-20,5
14,7,14,2,3,10,11,49,5
-21,-4,18,3,-2,-22,-18,-31,5
-2,9,24,-2,-3,12,0,8,5
15,-11,-32,-7,1,0,6,22,5
6,7,17,0,2,7,4,2,5
16,20,20,3,2,8,8,-4,5
-33,-36,-54,-20,-2,-5,1,13,5
15,12,27,5,3,-4,-6,-13,5
-2,2,-8,0,2,-11,11,2,5
12,8,28,4,-2,22,3,25,5
1,3,14,6,6,22,8,-20,5
12,19,5,3,-3,-36,-4,19,5
-24,-37,-20,-7,-9,-9,-27,-18,5
37,-18,-54,-7,-3,-1,4,10,5
-10,9,10,12,0,-11,-2,5,5
-21,2,45,1,-2,18,5,-25,5
-7,-8,-41,-5,2,22,16,-3,5
5,2,6,-1,-4,-22,-17,7,5
12,-12,-12,2,0,-8,-2,-4,5
7,6,15,0,0,19,10,8,5
10,16,22,1,-5,-27,-24,-10,5
-35,0,4,-3,-5,4,1,-7,5
5,-17,-53,-2,1,-25,-12,15,5
-4,-4,-5,-2,0,2,0,-1,5
11,5,-10,2,4,31,9,-44,5
-31,-17,-9,-2,3,9,10,-6,5
5,22,53,0,-5,-12,-8,0,5
1,-26,-79,0,4,-6,-1,27,5
-1,6,20,1,1,5,1,-1,5
-5,9,20,2,-3,-14,-11,2,5
-3,-22,-13,0,-1,3,2,-12,5
4,-3,11,-2,-1,-8,-9,3,5
6,4,-31,-3,2,19,5,14,5
20,24,41,5,1,11,12,2,5
-23,-12,-20,-9,-4,-14,-17,-17,5
-4,0,-3,2,3,14,9,-1,5
-6,12,43,4,-7,-35,-21,1,5
0,-6,3,-4,-2,-12,-12,13,5
14,-4,-29,0,1,25,2,-14,5
10,-3,-11,-4,-7,-14,-13,-3,5
0,16,40,3,3,13,15,3,5
-28,-31,-55,-12,-4,0,4,-6,5
21,13,27,7,4,-6,7,16,5
-14,2,19,1,-1,9,0,0,5
17,-5,-20,-7,-2,-3,-7,-5,5
1,9,12,5,0,-13,-9,8,5
-15,-20,-46,-11,-4,5,7,11,5
8,6,14,-3,4,-3,-1,15,5
2,1,4,1,1,7,6,-10,5
3,5,14,2,0,2,-2,-14,5
12,33,48,11,2,25,12,0,5
-2,-15,-45,-10,-11,-34,-12,11,5
-20,-18,-16,-4,1,0,2,7,5
22,-5,-21,0,3,14,6,-3,5
-14,0,33,2,-4,-7,-1,8,5
2,8,1,0,0,-11,-11,-15,5
-27,-5,16,1,-1,9,4,-13,5
12,12,2,0,2,4,-1,3,5
10,-8,-20,-16,-2,7,4,-8,5
-1,7,42,2,-1,5,1,-14,5
4,-2,-25,-1,1,-23,-5,8,5
1,-18,-46,-7,1,26,5,5,5
3,-1,29,7,1,-36,-15,-5,5
-26,-34,-67,-15,-5,12,-12,-17,5
1,13,22,4,-2,-7,15,14,5
3,0,8,-4,-7,-28,-21,-6,5
-10,1,-17,-2,-2,2,5,4,5
-11,-4,4,5,3,5,5,-2,5
11,1,0,0,1,13,17,20,5
4,12,24,7,5,2,-3,-13,5
20,6,-3,-3,-2,-10,-13,-14,5
-15,10,47,4,-1,1,2,9,5
-8,-11,-21,2,0,3,8,8,5
2,12,24,1,7,14,19,27,5
-14,-32,-75,-14,-8,-11,-11,-36,5
8,-6,-9,-3,-10,-46,-37,-14,5
11,26,44,1,1,12,0,-3,5
4,-1,19,3,3,6,7,-2,5
2,-7,-26,3,3,31,16,12,5
14,3,5,1,2,-1,12,11,5
8,4,14,-4,-1,-10,-12,1,5
-37,8,43,0,-2,-4,2,-17,5
-9,-11,-11,-1,3,13,-3,21,5
-6,-16,-13,2,0,-3,4,3,5
25,16,-4,1,1,-5,-5,15,5
9,-2,2,-3,-1,4,17,24,5
2,-9,-3,2,-2,-9,-7,-21,5
3,0,-4,-1,-4,-6,-12,-12,5
-8,3,6,0,2,19,13,13,5
0,-10,-27,-8,-2,-1,-19,-39,5
-10,34,63,14,-3,-30,-9,-2,5
5,-13,-9,-6,1,16,9,6,5
0,-3,-12,-6,-10,-11,-10,-3,5
-20,-5,-3,-2,-2,1,-2,14,5
14,-8,-55,-2,6,-18,8,24,5
6,19,20,2,2,43,17,-2,5
-3,9,64,14,4,-20,-10,-16,5
-4,-38,-85,-10,-8,-16,4,6,5
9,23,67,10,3,27,1,7,5
-6,4,-11,4,-1,-36,-4,20,5
-11,-16,-20,-15,1,17,-11,-45,5
-1,7,22,-2,-6,-16,-29,-34,5
1,-1,7,-5,0,7,5,2,5
-2,-13,-50,-1,5,-7,0,7,5
21,14,4,2,-3,28,11,27,5
-5,-6,-11,-4,2,-9,5,5,5
-16,-6,8,-3,-2,-7,-3,8,5
-9,7,26,1,-4,-18,-14,-37,5
-1,-5,-22,-5,-1,-7,-3,-18,5
5,-18,-37,-3,0,34,23,19,5
23,47,85,19,5,-20,-6,4,5
-6,-21,-58,-18,-6,20,10,4,5
-16,-60,-112,-14,-10,-41,-24,6,5
-1,21,27,1,0,8,1,-34,5
17,-16,-20,-1,-2,1,-7,-6,5
-34,22,54,10,0,8,1,-2,5
4,3,-1,-2,-1,10,11,-4,5
20,4,-7,1,-4,-34,-6,22,5
-27,4,33,-2,-5,-3,4,22,5
30,9,-11,5,4,12,-12,-27,5
-30,-27,-9,-3,2,-2,5,9,5
-2,5,22,10,-1,-3,-4,-10,5
19,22,21,-6,-2,12,3,-13,5
6,-3,30,-1,-1,-9,2,1,5
-27,-10,-26,-3,-1,2,6,9,5
-8,-7,2,10,4,11,8,-5,5
-8,-3,-2,-5,-7,-17,-11,-10,5
35,23,44,-1,1,2,10,12,5
26,15,-13,3,-2,-21,-19,8,5
-41,-36,-39,-13,-3,0,2,8,5
-19,-24,-25,-1,1,20,15,38,5
-12,5,7,0,1,6,0,-60,5
25,7,22,3,3,12,12,0,5
22,13,0,0,-1,-3,0,12,5
6,-7,-24,-3,0,0,2,-4,5
-3,-1,-21,1,-1,-4,4,27,5
11,28,75,7,-2,-5,-10,-15,5
1,-11,-23,-2,1,8,3,-1,5
1,-4,-15,-8,-3,-5,-8,-28,5
-37,-20,-40,-4,1,3,5,2,5
12,37,82,10,6,16,-2,12,5
-24,-32,-38,-10,-9,-44,-10,-10,5
11,3,12,-1,0,-19,-6,19,5
26,15,24,2,0,31,0,9,5
-15,10,25,-7,0,15,13,6,5
14,-19,-14,2,10,24,20,33,5
-16,-8,-16,-5,-7,-20,-5,-17,5
-15,-8,-14,-2,0,-7,-6,12,5
4,1,9,2,-3,-3,5,-2,5
21,23,29,3,0,0,-6,2,5
6,1,-14,0,3,6,7,7,5
7,4,13,2,2,3,4,11,5
-10,-12,-37,0,3,15,1,-5,5
9,44,87,10,0,-37,-20,-10,5
-21,-50,-69,-6,-3,-9,-9,30,5
-11,-6,3,-6,-3,28,0,-91,5
28,0,-13,2,0,-21,-5,19,5
-17,1,18,-2,1,4,2,1,5
-9,-10,-12,-2,2,21,4,-13,5
3,-7,1,-4,-1,-14,3,20,5
-27,-17,-21,4,-2,-11,-2,-4,5
8,24,39,3,3,10,1,-6,5
10,13,0,-4,2,1,-2,-7,5
12,-6,-11,7,4,13,5,19,5
3,-2,-22,-5,0,-38,-4,19,5
-22,-7,-17,-5,-6,-1,-26,-20,5
2,0,2,5,8,35,25,27,5
1,25,45,5,-2,-34,-24,-22,5
-12,-7,3,3,0,10,10,15,5
-3,-60,-107,-14,-9,6,3,-14,5
-4,2,37,4,-1,-11,-2,24,5
-12,0,21,-3,-1,1,10,4,5
5,3,5,4,1,7,-3,-18,5
19,22,7,5,1,0,7,19,5
4,13,7,-4,-4,6,-13,-42,5
-5,-24,-43,-5,1,-25,2,24,5
-16,3,3,1,-3,-3,-12,-18,5
3,1,10,-4,1,15,1,0,5
9,17,37,3,5,5,16,13,5
14,-13,-61,2,-6,-5,-8,-20,5
-22,-12,-10,-5,-4,-5,-11,-39,5
7,34,71,3,-1,-3,-1,13,5
-6,-16,-25,-14,-3,13,2,-1,5
7,-12,-6,-4,-1,-3,8,18,5
16,-5,-18,-3,3,13,0,-3,5
3,11,22,5,-5,-13,4,4,5
-3,5,16,-1,-5,-4,-19,-47,5
-28,-11,-5,-6,1,25,11,-7,5
-9,-2,-1,-7,0,-24,-10,25,5
14,-2,-10,1,3,-1,-1,-19,5
-4,5,-9,-1,-8,-16,-7,11,5
16,17,40,9,1,-17,-12,28,5
13,-20,-42,-10,-2,19,15,3,5
-33,-4,-5,0,0,6,4,-1,5
1,-22,-50,-2,0,-3,6,4,5
9,7,1,0,-1,-1,-5,-3,5
-5,21,45,5,2,5,7,9,5
13,-4,-6,2,-1,-6,-1,13,5
0,2,9,1,-1,-3,-1,-9,5
-12,9,31,2,4,11,3,9,5
9,-9,-19,-9,-6,-15,2,-4,5
2,5,4,3,3,40,10,-3,5
-1,20,39,2,-5,-45,-18,-21,5
1,-10,-19,-1,-1,-3,9,26,5
-17,-20,-18,-3,0,38,-2,-56,5
10,16,51,-4,-3,-32,6,12,5
3,-23,-76,-10,-4,-16,-2,-5,5
15,6,-1,4,2,19,10,37,5
-34,-11,-45,1,0,8,8,-12,5
-15,-21,6,-8,-7,-28,-11,1,5
5,6,20,6,3,15,5,-11,5
14,26,54,10,-1,-20,-11,-9,5
-9,-16,-49,-15,-2,26,9,-1,5
-1,-9,-37,-3,1,6,-8,-12,5
-2,9,16,4,2,-9,-7,-22,5
-20,-16,-16,-10,-1,5,-6,-22,5
22,37,76,6,-1,-17,-2,32,5
7,-2,-9,2,4,21,10,-8,5
-12,-9,-6,2,-5,-10,-8,22,5
6,8,19,8,0,5,11,10,5
2,6,33,9,2,-6,-12,-24,5
19,5,-12,0,-3,-2,0,12,5
-16,-18,-72,0,2,4,1,12,5
-9,-19,-18,-4,-2,-10,-2,-14,5
12,6,32,-4,-3,-12,0,13,5
-16,-12,-22,-4,2,16,2,3,5
19,33,73,10,7,16,14,2,5
6,12,0,-2,-6,-11,-18,-26,5
-10,-62,-112,-18,-5,-14,-4,32,5
-17,21,51,13,0,-2,3,-21,5
3,-21,-29,-9,-2,-2,-9,-21,5
-8,9,17,2,-2,-2,2,13,5
9,7,-2,7,-1,-6,11,14,5
25,9,-10,0,1,10,1,34,5
5,-7,-6,2,4,37,12,0,5
-25,11,25,-2,-7,-61,-40,-7,5
-20,-26,-41,-6,-6,-5,-13,-10,5
1,-11,-17,-6,0,-2,4,-15,5
-11,6,13,-2,-6,-5,-7,-3,5
18,-2,-2,0,3,26,16,17,5
6,25,41,6,4,-1,8,3,5
-2,-3,-5,3,1,2,-6,-19,5
3,-6,-19,-4,-4,-3,1,0,5
-1,-11,-3,-13,-6,1,-2,-15,5
-2,24,53,8,2,-2,-2,-7,5
-8,-37,-62,-11,-3,-5,-5,7,5
10,4,0,4,-2,-9,0,7,5
-10,-3,1,-1,1,-1,1,2,5
8,8,19,6,3,15,1,11,5
2,12,19,-12,-2,-1,3,8,5
-4,5,30,2,-2,-6,-5,-3,5
-4,-15,-30,-5,-3,-14,-4,5,5
14,12,35,5,5,28,12,-2,5
-12,8,-1,6,1,-14,-8,-13,5
0,-22,-21,-4,0,-20,-11,13,5
4,2,1,-1,2,24,15,-13,5
-2,-3,-4,-7,-4,-11,-1,-6,5
5,1,-2,0,-2,-3,16,10,5
3,30,52,3,4,20,-11,-36,5
2,-29,-52,-2,-3,-2,-8,4,5
2,-3,-1,-1,-2,-21,-14,-8,5
-18,16,40,8,6,40,14,9,5
-13,8,2,-5,-9,-60,-6,8,5
-6,-27,-69,-12,0,10,0,-2,5
2,-15,-28,-4,-6,-7,-3,17,5
33,6,7,10,12,20,7,-6,5
-25,9,42,4,-2,1,-1,24,5
-10,-3,-15,-6,-5,-1,-7,-21,5
11,-1,-9,-5,2,-12,9,25,5
-6,4,17,5,-1,13,-8,-40,5
7,-5,-10,2,6,21,15,32,5
4,12,27,4,-1,-18,-7,-29,5
-1,-4,0,1,1,14,1,-2,5
-7,-5,-2,0,-1,-19,5,18,5
0,-12,-15,-6,-5,-5,-16,-37,5
13,16,18,0,-1,13,12,33,5
-22,6,9,5,4,-9,-2,-15,5
0,-3,6,-5,-8,-6,-10,12,5
5,1,-3,2,7,12,13,6,5
25,5,29,6,3,0,-1,-8,5
-24,-20,-51,3,1,9,2,-15,5
-2,23,79,4,-4,-17,-13,-17,5
-23,-89,-87,-22,-6,1,5,11,5
-9,-13,12,4,2,1,6,7,5
5,18,50,5,0,2,-5,-10,5
3,7,-25,0,1,2,6,13,5
18,22,24,-2,-7,-14,-9,-16,5
-4,10,5,-7,4,15,11,18,5
4,-6,-22,-6,1,-1,-8,-9,5
-5,-14,-44,0,-6,-9,-7,13,5
-4,13,22,6,1,6,7,8,5
-5,-12,-35,-4,-3,-13,3,1,5
3,22,36,6,1,6,-6,4,5
5,16,25,-2,0,-3,-2,11,5
2,-14,-33,-4,-3,-3,0,6,5
-1,-1,8,0,3,28,9,-12,5
5,24,34,4,-4,-21,1,-5,5
1,-37,-62,-12,-7,-30,-9,7,5
-1,24,59,12,7,41,10,-26,5
-5,-14,-36,-9,-7,-30,-13,-2,5
18,-11,-14,-5,-3,4,9,13,5
-20,0,15,0,4,9,2,-8,5
13,26,31,7,1,-14,-1,-1,5
-9,-1,2,3,0,6,5,21,5
-6,0,3,0,1,8,-2,-26,5
17,3,9,-1,1,0,-3,14,5
8,-1,3,1,2,-14,-10,-14,5
11,-13,-38,-1,-4,5,-8,-3,5
-26,-1,12,-3,1,15,11,14,5
-1,-2,-32,-2,4,7,23,30,5
-8,1,22,-2,0,-10,-23,-47,5
10,6,2,-1,-5,2,-6,20,5
0,2,-4,-1,-3,-22,-12,-19,5
-1,-3,22,3,2,17,13,9,5
-2,5,-1,-3,-2,13,10,16,5
-1,11,26,4,1,-26,1,-3,5
16,-4,-15,-4,0,8,5,-7,5
-2,0,6,-5,-5,-6,-4,-7,5
-23,-2,-15,0,-1,-4,2,22,5
-7,0,7,-11,0,8,4,-7,5
5,19,38,6,1,0,0,1,5
18,4,-3,9,0,-2,-15,-21,5
-14,-14,-51,-9,-4,0,10,14,5
-8,-12,-23,-14,-4,1,-7,-3,5
-9,-20,-20,0,-1,8,-9,1,5
5,20,31,6,-1,-19,-17,-12,5
12,4,14,11,5,15,15,21,5
-14,-2,6,-2,-6,-11,1,9,5
-5,5,9,1,-1,-3,-2,3,5
3,-3,-5,-1,-3,-8,-6,-3,5
20,3,10,-1,4,-17,2,-12,5
-5,3,3,3,-1,4,-10,-35,5
11,-6,-1,-2,-3,9,3,14,5
-13,1,-8,-1,2,9,12,1,5
12,13,29,2,2,-12,-10,9,5
3,16,0,5,3,17,10,18,5
-5,-42,-79,-9,-3,-10,-9,-15,5
-26,-28,-35,-10,-5,-8,-5,-15,5
1,-2,-7,-5,-7,8,4,0,5
10,8,26,13,3,-10,-11,-5,5
4,33,45,5,4,0,0,15,5
-4,-20,-25,-13,-7,-2,-1,19,5
-19,-7,-16,1,1,11,-13,-49,5
0,8,20,9,5,-10,-1,4,5
26,1,-4,-4,-2,-11,0,10,5
-16,18,56,4,-1,22,6,-10,5
-23,-39,-92,-10,-6,-27,-14,-35,5
6,8,40,6,2,-7,5,26,5
0,-10,-25,-5,-5,5,3,-18,5
11,5,1,1,4,8,-10,-6,5
15,10,20,0,1,7,13,25,5
-18,-5,-7,-1,-3,7,0,-29,5
-15,-14,-11,-2,-3,-24,-11,22,5
17,6,-14,-1,-3,0,4,-4,5
-4,14,31,5,5,24,11,19,5
1,-21,-44,-7,-9,-38,-20,-17,5
-7,7,32,5,2,11,8,0,5
6,7,-3,-2,1,0,6,13,5
14,16,25,1,-2,-3,-3,4,5
-13,-17,5,0,4,15,13,20,5
-3,12,18,-1,-6,-20,-19,-24,5
-14,-48,-53,-14,0,2,5,-2,5
29,10,15,-2,-3,-24,3,19,5
-24,13,26,9,3,34,11,-1,5
2,4,15,7,6,12,6,0,5
10,15,26,7,-3,-46,-38,-14,5
-5,-7,-27,-9,-4,4,2,10,5
5,-5,-10,-2,2,5,3,-24,5
17,0,-18,-3,5,27,7,25,5
-25,7,19,1,-4,-35,0,-18,5
-8,-25,-40,-4,-4,10,-14,-27,5
18,17,36,5,2,6,7,23,5
-9,-15,-32,-4,-1,-1,5,13,5
8,-2,-5,-2,2,3,4,8,5
-8,24,47,8,2,9,7,7,5
13,-17,-50,-4,-1,-9,-5,-5,5
-18,-25,-56,-19,-10,-2,-2,-11,5
-6,-5,1,3,0,5,-3,7,5
-11,1,18,4,0,-9,-4,11,5
4,4,10,-1,-1,-5,-5,-42,5
11,12,24,1,-1,-11,1,15,5
1,2,-16,1,2,17,5,0,5
14,10,34,0,2,6,-2,-1,5
-10,-6,-38,-5,-2,-12,-4,0,5
10,-5,4,2,-4,-13,-10,-3,5
-23,-17,-21,-8,-4,2,1,-16,5
0,6,13,2,0,0,0,19,5
2,8,39,1,1,5,14,25,5
-10,4,-8,0,-2,-8,-5,-16,5
13,28,47,4,-2,2,-13,-12,5
7,-42,-100,-8,-3,-5,0,2,5
0,0,7,-2,-4,10,-2,10,5
-12,9,33,9,4,2,6,9,5
-1,-14,-12,-5,-5,-1,3,3,5
-2,12,11,-4,-2,10,4,-21,5
6,-3,9,1,-2,-35,-11,11,5
-8,-7,-22,-3,4,14,-8,-14,5
7,6,13,1,-5,-15,-4,11,5
-4,-3,-7,-3,-1,9,4,9,5
3,-4,-4,-3,3,12,7,-1,5
12,25,56,13,2,-9,-6,-6,5
-7,11,-5,0,0,10,5,6,5
-16,-17,-4,-5,3,6,5,-12,5
-1,-22,-40,-9,-7,-18,-11,1,5
-15,-14,-9,-4,-6,-37,-13,2,5
0,-9,-24,-2,2,43,11,-2,5
2,14,31,3,1,-10,8,16,5
0,14,10,4,5,13,-3,-8,5
11,3,-3,0,-1,17,3,-2,5
5,8,30,3,4,-27,-8,5,5
-3,-18,-43,-5,-2,5,1,-11,5
2,4,10,1,1,-3,6,9,5
-8,-7,-14,-5,2,15,11,-9,5
-2,2,11,0,-2,0,6,-6,5
-5,9,16,6,-3,-8,-14,-14,5
-6,-2,-1,-2,0,1,5,-3,5
9,5,1,-1,1,7,-2,-4,5
-3,-5,-9,-10,4,8,6,6,5
3,0,9,-1,-3,-25,-6,12,5
-5,-10,-25,-4,-3,21,1,-11,5
-18,-1,15,1,4,-4,-5,-25,5
22,0,-16,12,1,-9,-3,7,5
6,11,-2,-3,-5,2,6,22,5
-23,-5,1,1,-1,-14,-12,-19,5
4,-6,-12,2,-12,-4,-1,22,5
5,-7,-8,-10,5,5,-1,-9,5
-5,14,38,21,-2,-14,-6,-4,5
3,10,49,5,4,17,9,-4,5
-13,-32,-53,-1,1,-5,3,-1,5
-8,-16,-24,-3,-2,0,-1,-25,5
13,8,13,-5,-1,6,-5,6,5
14,21,25,2,-2,-18,-4,40,5
12,5,9,-4,3,10,-3,-21,5
-7,7,23,1,-6,-11,-5,-17,5
-23,-10,-15,-10,2,34,11,16,5
3,3,-9,-3,-2,-24,-5,-2,5
5,3,-7,-11,-4,-22,-9,13,5
5,-2,-13,3,2,6,6,7,5
1,-5,3,-2,3,7,1,-24,5
4,6,-8,-2,-4,2,-3,4,5
-16,11,31,0,-2,-5,-8,-4,5
9,-3,-29,1,-1,-10,-8,19,5
-5,-20,-41,-4,-2,1,-1,-20,5
8,3,-14,-4,2,10,4,-5,5
10,9,-1,1,5,0,9,4,5
-22,-22,-23,-12,-8,1,-4,1,5
6,3,1,-2,-2,-27,-8,10,5
11,19,39,4,1,34,5,6,5
-21,-38,-66,-11,-5,-8,-4,-25,5
6,12,27,9,5,12,17,24,5
-9,-5,-4,5,-9,-49,-30,-21,5
3,-1,11,-7,-2,16,8,-3,5
14,6,13,-1,-2,6,14,-5,5
-4,-3,-7,-2,-1,-16,-8,6,5
-6,3,4,5,6,31,11,15,5
-1,29,50,12,1,-19,-9,-11,5
0,-29,-63,-3,1,21,12,42,5
0,-9,-20,-6,-3,-10,-4,-49,5
-3,-1,5,-5,-1,-3,1,0,5
-20,-4,-6,0,0,-1,5,16,5
8,-7,-20,5,3,-5,1,3,5
6,0,7,-4,-4,-4,-5,9,5
8,-6,-17,-6,0,-3,-7,-26,5
-33,-6,-5,-1,-2,6,0,8,5
27,23,47,11,4,-9,-11,-32,5
-11,13,45,-1,-3,0,-10,3,5
-23,-28,-48,-6,2,15,20,20,5
-2,-13,-23,-6,1,-3,-10,-13,5
-6,10,34,-3,-2,-8,-5,1,5
24,5,12,3,-1,7,3,19,5
9,10,7,3,-2,-15,4,-6,5
-2,1,-1,-2,7,37,19,-18,5
-3,11,31,7,1,-24,-26,-2,5
3,-15,-51,-7,-3,-7,-10,5,5
-8,-14,-14,-2,-2,-2,4,-1,5
6,-10,-27,-5,-5,-16,-2,-3,5
16,38,76,5,3,48,31,9,5
-9,-30,-77,-3,2,-14,-7,5,5
-17,5,25,-4,-6,-14,-9,-9,5
4,-1,13,14,4,-2,0,-7,5
-7,-11,-49,-18,-5,1,3,20,5
-10,7,41,2,-3,-1,-9,-32,5
-5,-1,-13,6,-1,7,4,1,5
35,3,-6,-5,-3,-8,-11,3,5
-43,-6,10,-3,-5,-17,1,-4,5
8,-16,-23,0,3,20,10,19,5
-5,2,13,-2,2,4,-3,-20,5
-3,-1,5,-5,-4,-15,1,0,5
18,4,-7,8,-1,6,-6,-1,5
-2,12,22,5,-3,-1,0,-6,5
9,10,21,3,4,-6,4,15,5
-13,-16,-29,-7,-7,-19,-23,-14,5
1,2,6,0,-2,13,3,6,5
-16,-3,2,-1,0,-3,10,-11,5
16,14,21,2,6,53,19,13,5
-6,-3,4,-2,-2,-27,-17,2,5
-23,-25,-11,-7,-9,-27,-14,-15,5
-43,-4,36,-2,0,6,-4,0,5
22,9,-6,5,5,15,-1,-10,5
-7,-20,-34,-4,-1,-8,4,6,5
4,9,20,-1,-2,0,-6,1,5
0,-11,-32,-4,2,-10,-6,8,5
2,3,26,-3,-6,-18,-18,-9,5
8,2,-3,0,2,2,-2,5,5
10,10,20,12,4,-2,12,17,5
-1,12,26,-4,0,33,13,-7,5
2,-4,-17,1,2,-20,-10,20,5
2,1,5,1,-5,2,-3,-32,5
-4,1,-6,-5,-4,2,-15,-13,5
-1,6,10,5,3,-5,6,0,5
-1,-8,-21,-9,-6,-12,-5,6,5
-10,-3,8,4,-5,-31,-17,1,5
-1,2,23,0,3,23,17,5,5
8,-15,-42,-4,-5,-4,0,8,5
25,14,4,-1,1,-1,3,22,5
-19,-12,-19,-3,1,26,13,-9,5
11,5,3,6,2,-18,0,40,5
-12,3,23,3,-4,-17,-23,-68,5
-5,-2,11,4,-2,0,4,13,5
21,18,18,0,2,14,10,30,5
11,11,1,1,2,2,3,-3,5
7,-19,-45,0,1,5,7,15,5
-20,3,9,-5,-4,-8,-2,-4,5
1,-23,-41,-6,-2,7,-1,-6,5
0,-7,-14,-4,0,-20,1,-9,5
4,20,37,2,0,12,-8,-4,5
-6,-14,-6,-3,3,29,7,-10,5
-11,-4,2,0,-5,-32,-9,13,5
-12,-2,5,-5,-5,-14,-4,-6,5
5,13,11,5,7,20,9,-4,5
9,-1,8,0,0,13,-4,10,5
4,-13,-29,-7,1,-18,-6,9,5
0,-18,-24,-4,-4,-8,-9,-17,5
-11,-17,-35,-4,-1,-10,-4,-11,5
4,-1,-17,0,-3,6,-1,0,5
3,18,39,4,5,16,22,39,5
-9,5,1,2,-4,-18,-12,-36,5
14,13,12,0,-1,-2,4,24,5
5,-16,-54,-6,-5,-12,2,-8,5
0,6,14,-2,2,27,6,-13,5
-10,-19,-53,-2,-1,-11,-3,11,5
-6,8,1,-3,-1,7,7,-1,5
5,-3,0,0,-3,-13,-9,-12,5
-8,4,10,5,2,8,3,10,5
9,-1,0,-3,1,20,3,-9,5
6,5,18,4,-1,-37,-8,0,5
-2,4,7,-2,-1,27,0,-10,5
4,5,2,1,-3,-16,6,3,5
13,6,4,2,4,27,13,10,5
-6,-18,-26,-8,-5,-19,-9,-5,5
-8,11,19,5,0,-5,-1,10,5
2,-15,-9,-8,-2,22,4,-9,5
-5,9,26,2,-2,-12,4,19,5
15,5,4,1,3,-2,1,12,5
-3,0,5,-1,-1,-8,-8,3,5
1,21,26,5,-3,8,-2,-23,5
13,-19,-73,-2,-2,-18,-9,11,5
-7,11,40,-5,-2,26,12,15,5
-12,-23,-4,-7,-6,-20,-9,-7,5
2,-4,-27,1,2,15,5,1,5
-1,7,26,-3,-6,-27,-11,-9,5
19,14,18,4,-1,4,0,-12,5
-1,7,3,1,2,1,6,-8,5
-11,-4,3,1,0,-1,0,-9,5
-12,-3,6,-3,0,10,1,0,5
4,-9,-16,0,0,-5,-1,0,5
-1,8,14,3,0,-6,-5,-13,5
3,-3,-10,-1,-1,-3,1,7,5
5,7,16,3,4,12,5,3,5
-9,-5,-1,1,-1,4,-1,-3,5
-8,-4,-2,-6,-1,3,1,-4,5
6,16,31,-1,3,-12,-1,6,5
0,-23,-50,-10,-6,-3,-15,-10,5
-9,-22,-42,-8,-1,0,3,12,5
-5,-4,-2,-11,0,3,3,-15,5
2,-10,-13,-1,-1,-11,-3,1,5
-7,18,46,8,4,36,16,-13,5
6,15,36,3,1,-3,3,16,5
3,-1,-16,7,4,-15,-7,4,5
-11,-9,-8,-6,-5,11,-5,-16,5
10,5,5,-1,0,-18,-7,4,5
0,2,3,2,0,13,2,-6,5
8,20,27,11,5,9,12,16,5
-9,-20,-18,-7,0,15,5,-27,5
-4,-9,-10,0,-8,-61,-29,0,5
-2,0,-19,-5,0,29,6,9,5
-4,9,31,8,1,-15,-5,-6,5
17,-2,-51,-6,-3,21,11,14,5
-10,-10,9,-2,2,21,16,-1,5
-21,-30,-60,-5,-8,-41,-25,-9,5
-1,5,10,2,-2,1,-1,-18,5
-6,3,1,2,2,-15,-4,4,5
5,3,-4,0,4,25,8,11,5
25,20,20,1,-1,3,5,5,5
-12,3,13,1,0,-13,0,3,5
0,-22,-18,0,-6,-18,-9,13,5
-3,16,22,-11,0,6,8,-17,5
-5,-4,7,1,4,5,-12,-13,5
7,5,14,-3,-4,-4,5,1,5
-6,11,19,2,-5,-10,-10,9,5
0,-13,-40,0,3,-5,9,4,5
-1,-1,9,-3,-6,-8,-12,0,5
-2,-8,-17,-4,2,9,7,29,5
0,3,10,1,-1,-6,-7,-14,5
0,1,3,1,1,20,6,4,5
3,8,24,2,3,1,11,0,5
-6,-33,-65,-4,-7,-10,-5,6,5
5,8,3,-5,0,1,7,5,5
0,3,24,10,-1,-1,-3,-7,5
2,34,62,11,2,-8,-7,1,5
-30,-59,-103,-6,-2,6,-7,-9,5
-3,-7,-11,5,2,2,4,-7,5
-4,-4,-3,-3,-2,4,5,11,5
17,11,11,-1,0,-1,0,-6,5
1,17,33,2,0,-2,-7,-11,5
-12,0,5,3,0,4,3,-1,5
-4,6,24,2,1,-9,-5,-7,5
15,0,-25,-8,-4,1,15,21,5
5,7,-3,-4,4,18,6,8,5
3,10,15,1,-5,-10,-8,-3,5
-11,5,25,1,-3,-10,-9,-5,5
-9,-10,-7,-4,0,23,16,10,5
14,-16,-53,-7,-11,-29,-15,-18,5
16,10,23,1,2,11,9,26,5
-16,-3,-7,3,-2,-9,-1,29,5
5,7,13,-9,2,0,-5,-30,5
-9,8,28,-3,-1,4,4,21,5
2,-7,-13,1,0,-6,0,-12,5
6,0,-1,0,1,6,2,15,5
-1,-16,-11,2,1,-6,-3,-12,5
-1,19,40,5,0,7,7,7,5
10,4,-16,-6,2,7,3,-1,5
-6,-11,-16,-4,-4,-24,-18,-25,5
8,10,10,6,-1,7,-5,-2,5
-11,-3,-1,-8,-5,-11,-9,0,5
-2,-24,-12,-2,1,3,6,2,5
-17,8,7,-2,1,-3,8,5,5
-4,10,33,-2,2,22,7,4,5
12,-4,-5,1,-3,-44,-31,3,5
-2,-12,-26,-1,1,16,4,-9,5
16,-6,-35,-4,7,10,12,3,5
-21,-9,8,0,-2,-15,-9,-3,5
10,14,28,3,1,11,9,8,5
-10,3,13,1,-1,-15,-8,2,5
7,1,-11,-2,-3,26,5,-25,5
-1,-8,-24,6,2,-24,-4,12,5
15,5,13,3,-1,13,3,4,5
0,18,37,4,1,-9,1,10,5
7,-10,-44,-3,-3,13,-2,-13,5
-11,-5,-5,6,0,-2,-4,2,5
2,10,3,-7,2,2,11,13,5
-2,-3,0,5,-3,4,-8,-20,5
10,15,32,1,-1,-3,-5,9,5
-4,-13,-6,1,0,4,2,-1,5
-5,-6,-19,-4,-3,-8,5,-3,5
-4,8,27,-7,-4,1,-7,-6,5
-5,3,-9,-3,1,-5,-6,-1,5
-4,-23,-34,-5,0,2,0,1,5
7,14,33,7,5,11,10,-13,5
-4,1,14,2,-2,21,15,-6,5
-1,6,27,-2,9,-16,-14,-10,5
3,-9,-64,-6,-1,-12,-7,7,5
-6,-1,11,7,-6,5,14,9,5
-24,-32,-59,-10,-15,-13,-19,-5,5
4,-1,15,1,-6,3,2,5,5
-5,10,21,3,3,4,11,3,5
20,8,13,3,1,3,-12,0,5
-10,-3,-18,-3,6,-24,-17,-12,5
8,2,10,3,1,17,13,7,5
-10,-8,0,-5,-6,-22,-11,0,5
-1,-3,3,-7,-3,10,2,-9,5
3,20,31,7,5,-4,3,12,5
-4,-11,-23,0,-2,6,-2,-37,5
-2,-22,-41,-10,-5,6,-3,4,5
-7,-1,1,-2,2,1,4,2,5
-7,-8,-8,-5,-2,-13,-12,-24,5
11,12,31,7,2,4,6,16,5
9,33,59,1,-2,-4,7,1,5
-5,-24,-58,-8,1,12,5,-10,5
6,6,-17,-3,-6,-33,-25,17,5
-4,-16,-14,-3,-1,10,13,9,5
-9,-15,-11,-3,-1,-9,-9,-12,5
14,4,6,1,1,9,3,14,5
1,17,23,4,3,16,17,9,5
-16,-6,8,-1,-7,-6,-9,-35,5
-4,-16,-62,-7,-1,-12,-8,5,5
-15,0,13,1,2,1,3,5,5
7,-13,-13,-7,1,10,3,4,5
-4,8,12,-2,-4,-30,-15,26,5
7,14,24,0,-1,12,13,6,5
-11,-7,-4,7,1,6,-6,-32,5
8,14,21,4,1,-4,4,15,5
0,-12,-43,-10,-1,21,7,7,5
10,12,36,7,2,-4,1,0,5
7,-3,-8,-7,-9,-26,-20,-9,5
-11,-19,-31,0,1,12,7,-11,5
1,7,21,7,0,-3,3,12,5
3,-2,-6,-2,-3,1,0,-3,5
12,17,36,5,4,19,15,21,5
-17,-18,-14,-5,0,-13,-9,-8,5
1,-3,-1,-3,-4,-9,-6,-12,5
-11,-4,-7,3,1,13,6,2,5
1,14,17,6,5,10,10,14,5
14,1,2,-3,-4,-25,-7,4,5
-5,3,20,3,-1,19,5,-10,5
-2,-2,-18,-2,1,-5,-4,-6,5
0,-12,-40,-6,-4,-9,-13,-9,5
-2,13,19,5,0,6,3,0,5
-7,-23,-38,-7,-3,-11,0,-1,5
6,11,28,5,-2,6,5,23,5
-12,-5,0,1,0,-5,-13,-37,5
12,7,7,6,5,13,14,15,5
29,32,45,4,1,-5,-14,6,5
-20,-18,-30,-11,-4,-3,2,-4,5
-23,-26,-40,-7,-2,-11,5,24,5
13,7,22,-3,-1,9,0,-2,5
-10,-7,-24,-3,-2,4,4,-29,5
29,24,39,7,3,5,0,2,5
-9,-2,-6,-7,-3,-23,-9,-5,5
-9,-12,-8,-4,-3,11,-3,-20,5
4,11,40,2,-1,-12,-2,20,5
-2,-19,-48,-4,1,-12,-7,-10,5
4,14,35,4,1,11,10,13,5
4,-2,-23,-1,0,9,-1,-24,5
-6,-13,-14,-5,-6,-26,-16,3,5
-10,3,15,5,-2,20,4,-18,5
4,5,2,-1,1,-21,-8,-3,5
3,3,4,0,-2,-3,0,11,5
-3,-1,16,5,1,7,9,2,5
-10,-6,-12,-12,-4,-8,0,1,5
1,-2,0,3,2,1,13,19,5
6,2,-6,-3,-3,1,-10,-4,5
2,10,48,5,9,13,18,20,5
2,-12,-44,-8,-5,-10,0,-4,5
-25,0,5,2,1,17,-3,-17,5
8,27,66,12,8,4,14,26,5
4,-35,-91,-11,-9,-12,-3,-18,5
6,2,14,-4,2,1,-3,9,5
0,-1,-11,-1,-2,-7,-2,1,5
4,5,7,2,0,4,3,3,5
-10,-3,-1,3,2,2,1,10,5
10,11,30,7,1,3,4,4,5
-3,-11,-20,-9,-8,-8,-24,-28,5
-1,5,11,4,2,-4,5,2,5
-3,7,-3,-2,2,0,1,17,5
0,-8,-6,-2,1,14,4,5,5
-4,-15,-24,-5,-4,-29,-10,-8,5
-1,-1,11,-4,-1,-4,-6,-4,5
-10,-16,-47,-2,-3,5,-8,1,5
2,8,3,1,1,-1,6,5,5
9,3,20,3,3,16,8,2,5
-5,-16,-21,-4,-1,-5,2,4,5
2,8,11,5,-3,-10,0,-8,5
6,3,7,4,4,8,1,2,5
-11,8,22,2,3,1,4,5,5
-5,-33,-84,-10,-7,-1,-1,4,5
-5,6,27,1,6,3,1,-18,5
-9,4,-2,1,-3,-21,3,35,5
8,-6,1,-1,5,45,5,-45,5
-4,12,49,0,-11,-62,-38,0,5
7,-6,-27,-4,0,25,20,13,5
6,0,17,0,2,-6,-5,-17,5
-14,-18,-40,0,-4,-17,2,22,5
4,7,25,5,5,48,12,-12,5
-6,2,-5,-3,-2,-17,-7,1,5
1,5,7,-5,-6,-16,-19,-4,5
7,16,48,1,-5,-8,5,16,5
17,-13,-64,-7,3,6,4,-19,5
-21,-21,-7,-7,-3,19,4,8,5
-9,7,23,7,4,-6,-3,-3,5
5,-2,-27,-8,-10,-38,-23,3,5
-9,2,8,1,-1,3,16,8,5
9,14,15,-2,2,14,3,-6,5
11,-11,-11,-1,0,20,15,0,5
8,17,18,3,6,5,3,12,5
-35,-46,-72,-9,-2,-9,-4,5,5
-1,2,5,0,-2,-14,-11,1,5
-12,-16,-15,-1,-1,7,0,-4,5
25,25,42,3,3,3,3,25,5
-5,9,20,2,1,10,-2,-19,5
17,12,13,4,4,-1,8,26,5
-3,-13,-15,-6,-4,-4,-7,-5,5
-24,-17,-9,-2,-2,8,2,-4,5
7,8,16,7,0,-11,1,9,5
-2,3,4,-2,0,6,-5,-2,5
9,22,41,6,-2,-10,0,8,5
-1,-12,-35,-3,-3,5,0,-11,5
-1,5,2,-12,-2,-6,-6,-11,5
13,-9,-14,-3,-1,13,1,0,5
-16,1,19,0,0,-32,-9,-5,5
4,4,9,7,1,12,6,1,5
-1,-2,-9,3,-1,1,3,-14,5
5,-3,-7,-2,0,-8,-4,-5,5
-1,1,2,-3,3,18,6,-2,5
-5,12,29,-4,0,-5,-5,-12,5
6,6,6,-2,-3,-9,-2,19,5
-13,-33,-72,-8,-3,-7,-3,-18,5
6,-9,-31,3,-2,-2,-4,11,5
-6,3,13,1,2,12,3,-3,5
-5,10,31,3,-2,-21,4,13,5
-4,8,12,3,4,26,2,-6,5
3,-2,13,6,-7,-39,-21,3,5
3,-19,-23,0,3,31,9,-12,5
-18,-8,-17,-8,-6,-27,-16,12,5
3,15,30,-2,-5,-12,1,6,5
11,11,5,0,2,16,3,1,5
0,0,6,0,1,5,4,-24,5
9,4,21,9,4,-3,1,8,5
-3,2,9,-1,-3,5,-2,3,5
-4,-11,-25,-5,-3,-4,0,-3,5
-5,-10,-27,-9,-6,-12,-8,4,5
7,2,8,4,3,20,9,-2,5
0,-4,-15,-1,-3,-7,0,-3,5
-7,7,18,2,4,-1,0,-2,5
5,-6,-13,1,-9,-8,-16,12,5
7,12,15,0,0,-5,-8,-7,5
-4,-6,2,3,0,-3,-4,8,5
-3,0,-11,-11,-3,14,7,-4,5
-2,-19,-39,-2,2,-12,5,-12,5
13,10,15,4,2,6,-2,10,5
-23,-8,-1,1,-2,-7,-5,-11,5
7,-4,2,-8,-2,4,1,1,5
3,0,-1,-3,4,-3,4,7,5
-21,-7,-14,-8,-4,-3,-7,-35,5
18,27,52,14,3,-2,-2,7,5
-8,-16,-28,-1,1,0,2,6,5
14,9,11,1,-4,-9,7,15,5
7,-4,-12,-1,1,21,-7,5,5
7,1,1,0,-3,-14,-3,1,5
-13,0,-2,2,-2,-10,1,-14,5
2,7,7,-4,0,7,-4,6,5
1,10,26,1,-2,-17,2,10,5
1,-8,-37,-4,-3,7,-3,-7,5
-3,2,7,1,-3,6,-1,3,5
-3,-3,-6,-2,4,-1,5,18,5
10,9,3,5,0,4,10,-20,5
-5,-7,-18,-6,0,-7,-1,-8,5
-11,1,21,-1,-3,-9,-6,-3,5
-9,-11,-28,-5,-4,12,5,2,5
1,-3,-10,1,1,-15,-9,-6,5
11,13,14,1,1,-5,5,10,5
10,-5,-18,-4,-2,3,6,3,5
-24,12,37,8,-1,-11,-22,-26,5
-3,-8,-26,-4,3,61,30,6,5
1,8,24,0,0,-49,-13,7,5
11,-2,-24,2,3,13,5,13,5
14,0,3,-4,0,5,7,14,5
-2,-21,-32,-4,-1,2,-3,-22,5
-16,7,25,-1,-1,-9,-7,8,5
2,-8,-4,1,-2,0,-8,-11,5
-3,-9,-16,3,-6,-21,-11,0,5
1,-1,6,-1,2,22,15,15,5
3,0,2,-1,1,0,4,-11,5
14,35,65,7,3,9,-1,-7,5
-7,-26,-54,-15,-5,-14,-12,-19,5
-22,-14,-28,-4,-4,-4,-3,4,5
0,-3,7,-3,1,7,4,3,5
3,18,32,0,-3,-8,-6,13,5
11,-15,-20,4,2,5,4,-6,5
1,-1,20,1,-3,-13,-5,14,5
9,-3,-28,-5,2,13,3,-6,5
-21,-1,3,0,-4,-13,-13,-9,5
6,16,33,2,3,7,9,17,5
5,-1,5,1,-1,-2,-3,-11,5
-8,-2,19,3,-5,-19,-6,4,5
5,-12,-28,-7,-2,2,7,-3,5
-1,19,14,4,5,8,-10,-23,5
-2,-14,-12,-3,-4,-19,-16,0,5
7,-2,11,4,0,1,9,-1,5
-6,-6,-16,2,-1,31,12,-5,5
1,12,21,2,2,0,7,0,5
2,27,42,8,3,-4,1,15,5
-9,-18,-14,-8,-4,2,-8,-20,5
-4,-24,-75,-6,-2,0,1,-3,5
-11,-5,13,-2,-3,-13,-7,-11,5
12,0,-12,-5,-1,-5,-5,-10,5
-12,0,6,2,1,11,0,2,5
-1,9,6,-3,-3,2,-2,-25,5
12,18,30,9,4,27,15,15,5
-13,10,40,-4,-7,-57,-32,-15,5
-1,-35,-84,-10,-1,28,10,5,5
2,2,13,7,1,-6,-2,-7,5
13,4,7,0,0,-5,-1,-10,5
11,19,31,9,6,41,16,1,5
-9,5,-1,-6,-6,-45,-16,20,5
-2,-15,-28,-7,-1,13,-1,-3,5
-3,2,13,2,-3,-18,-2,2,5
-1,-10,-42,1,6,29,13,-12,5
-6,7,13,0,-2,-17,-18,-11,5
3,8,27,8,0,-3,-4,6,5
-3,-10,-30,-6,-6,-11,-18,-18,5
5,-2,-15,0,1,15,15,21,5
12,4,8,3,3,10,0,-14,5
-12,3,21,3,0,-2,-3,-9,5
9,20,21,-1,-2,-2,3,1,5
0,-3,4,-4,-2,-10,-7,4,5
-2,-9,-30,2,-1,14,8,0,5
-18,-21,-26,-9,-5,-17,-2,6,5
-5,-24,-44,-7,-2,1,-2,-4,5
-12,-2,-8,-1,-2,-6,4,14,5
9,20,51,1,1,6,2,1,5
0,-10,-10,-5,2,4,4,-6,5
10,17,22,3,2,3,5,26,5
-15,-25,-28,-2,-4,-22,-8,-21,5
2,8,20,2,-3,1,-6,8,5
6,-7,-26,-2,3,10,4,-3,5
-30,-5,6,-1,-2,-7,-8,-9,5
13,11,16,1,-1,9,10,10,5
1,-2,-5,3,1,-6,5,0,5
3,9,26,7,3,21,15,13,5
-5,-7,-9,-7,-5,-30,-23,-14,5
3,-7,-13,-4,-3,-6,1,1,5
-8,-7,-14,0,-1,5,4,-5,5
11,23,44,0,0,-2,5,5,5
6,-9,-1,3,8,23,18,27,5
-7,-9,-14,-4,-9,-29,-19,10,5
-3,22,46,-3,-1,3,-2,-32,5
-7,-37,-82,-9,-6,-10,-18,0,5
2,25,40,13,5,14,12,-7,5
7,-4,8,0,-1,-7,-4,8,5
-1,-16,-51,-8,0,17,7,11,5
5,10,14,-5,-3,-18,-10,-6,5
2,-8,-15,0,-1,-1,6,5,5
-19,-5,-8,0,-1,1,-1,-6,5
1,0,8,6,3,26,9,13,5
-1,8,17,2,0,-21,-9,-17,5
12,5,2,2,0,5,-1,12,5
16,26,47,2,-2,-21,-20,-39,5
-17,-32,-63,-13,-5,-10,-1,12,5
-8,-12,-25,-7,-1,2,4,-5,5
0,-4,2,-2,0,16,10,7,5
5,10,7,6,5,19,12,26,5
4,26,71,7,1,-9,-16,-59,5
8,-17,-73,-2,0,-9,0,14,5
-6,5,7,-2,-4,-4,1,-1,5
-5,-21,-31,-6,0,23,19,16,5
-4,-3,3,2,0,-17,-5,11,5
-21,4,28,-1,0,6,1,-2,5
4,9,14,1,1,-5,-11,-3,5
7,6,7,5,3,17,5,-9,5
1,-7,-25,-10,-7,-15,-3,1,5
9,21,48,5,3,-6,1,12,5
1,-25,-45,-11,-6,-7,-6,-10,5
-10,-12,-12,-3,-4,-11,-9,1,5
2,5,8,4,-2,5,6,6,5
0,13,31,-5,4,27,5,7,5
-6,-7,-14,-4,-4,-41,-19,-14,5
5,9,16,2,1,24,0,-5,5
2,-7,-34,-2,-5,-11,-1,-4,5
4,2,3,2,-1,11,17,22,5
-9,-6,-14,3,1,1,-3,-11,5
-12,-7,-13,-8,-1,-16,-7,-10,5
11,21,38,13,5,16,6,20,5
25,5,12,5,0,-3,-1,-16,5
-22,-37,-68,-18,-7,6,6,10,5
-4,3,-6,-5,-3,-6,1,15,5
-4,-20,-16,-2,2,8,2,-1,5
-16,0,34,6,-1,-11,-6,-13,5
20,6,-4,7,2,10,9,20,5
2,-5,-15,-5,-1,-5,-7,-6,5
11,16,14,2,-1,-13,2,21,5
-4,5,12,-2,-3,26,-2,-16,5
-4,-9,-18,-5,-1,-7,-6,-2,5
-8,-10,-7,2,1,-20,-6,4,5
-4,-4,-9,-2,-2,-6,-6,-9,5
1,13,33,3,2,5,7,0,5
1,-6,-16,-2,1,8,7,15,5
4,2,-1,7,-2,-5,-3,0,5
-2,-9,-3,-11,-1,-8,-6,2,5
-2,-7,-19,-2,0,6,-1,-22,5
2,14,39,0,1,-2,2,8,5
-4,6,1,-5,-2,-4,-4,5,5
9,-1,31,2,2,8,1,12,5
-13,20,22,11,2,1,4,19,5
-1,-39,-58,-15,-4,-23,1,2,5
-5,-10,-32,-3,-4,24,-4,-19,5
-5,5,20,-1,-1,-7,-1,10,5
-2,2,-10,2,-1,-8,-1,-5,5
8,20,38,7,-2,-4,-8,-17,5
3,8,65,-2,2,8,15,8,5
-14,-37,-90,-4,-2,-3,-9,-12,5
6,-7,-42,-3,-1,-24,-9,13,5
-9,7,18,4,-8,1,-8,-22,5
-4,-8,-11,-1,4,5,6,0,5
6,21,41,6,-1,21,7,-5,5
6,-10,-13,-15,-2,-23,-5,8,5
12,12,10,2,-4,-6,-6,7,5
-8,3,4,2,-1,13,2,5,5
1,3,-6,3,6,1,7,-3,5
-4,-11,-16,-5,-8,-3,-9,4,5
-7,6,21,1,1,16,8,8,5
15,11,15,1,1,-18,-3,-1,5
-10,-13,-27,-2,1,4,2,-3,5
1,-8,-9,-5,-2,-4,7,15,5
2,25,61,7,2,1,-7,-19,5
-2,-16,-39,-9,-3,2,2,-14,5
3,13,21,0,-5,-4,-6,9,5
-7,-9,-1,4,1,-10,-2,-3,5
9,3,-15,-6,1,7,8,1,5
0,-4,-35,4,1,-1,7,24,5
1,1,3,-3,-3,0,-6,-21,5
-12,-4,6,-2,-4,-26,-10,-17,5
1,5,9,5,0,26,2,9,5
13,13,14,7,3,6,10,-2,5
6,-10,-23,-3,-4,-19,-6,8,5
-10,4,10,4,3,7,2,-16,5
-1,2,8,1,-2,-24,-11,4,5
-1,1,3,-1,-1,10,4,1,5
-2,-10,-11,-15,-1,7,3,3,5
5,6,34,2,1,25,8,15,5
-5,-10,-34,1,4,-9,1,1,5
-4,-18,-43,-8,-8,-11,-10,-6,5
8,16,21,3,2,6,6,0,5
-1,1,1,-1,-1,2,6,6,5
1,6,33,3,1,12,-4,-9,5
-15,-15,8,4,0,-12,0,28,5
-9,-27,-67,-6,-4,1,-11,-41,5
11,-4,-22,-3,-4,-6,3,23,5
-5,17,43,2,1,1,6,-22,5
2,2,6,-3,1,0,-8,-2,5
-8,-6,-4,-4,-7,-6,8,11,5
-1,-5,-11,-1,3,10,-6,-24,5
3,-10,-25,0,2,-7,3,12,5
-3,11,19,-2,-7,-11,-15,-7,5
0,5,13,2,6,15,9,-15,5
14,2,-10,-1,-10,-27,-12,1,5
0,-4,0,0,2,26,14,17,5
-2,0,-8,-2,0,-4,3,-15,5
-8,11,21,8,1,-2,-1,11,5
8,2,-5,0,-2,10,0,4,5
-12,-8,-5,-3,0,-8,-4,-18,5
11,10,12,4,-2,-10,0,2,5
0,7,12,3,-2,8,-2,0,5
-5,-32,-85,-8,0,5,-1,-20,5
-13,-19,-41,0,-5,-18,-8,10,5
-6,-2,6,1,2,15,4,-6,5
9,10,12,2,3,-5,1,9,5
-5,20,42,3,0,2,-2,2,5
6,-1,-3,-3,-2,2,3,3,5
-3,-13,-29,-2,1,-3,5,-6,5
-10,-3,-4,6,1,-11,-2,2,5
5,24,62,4,0,9,-2,6,5
8,-12,-42,-5,-2,6,-5,7,5
-15,-9,-23,-3,-1,5,-4,-23,5
1,-6,0,-2,-2,-10,0,15,5
-3,-5,-13,-2,0,3,13,13,5
2,10,25,1,-2,-4,-8,9,5
9,8,-3,-2,1,5,0,10,5
9,2,32,1,1,-1,2,0,5
-12,-1,-12,-7,-1,12,-1,-26,5
-4,-14,-26,-11,-5,-33,-10,15,5
2,9,45,5,2,6,4,3,5
0,8,-11,-6,2,-3,0,4,5
2,-1,26,4,3,13,3,-9,5
-11,-4,-8,-6,1,8,3,-13,5
0,-12,-20,-8,-6,-3,-1,-21,5
3,9,9,1,1,-2,2,6,5
11,5,11,5,-2,0,-1,3,5
-16,-1,14,6,2,-7,-7,-18,5
4,0,-4,-5,-5,-18,-4,10,5
-8,-9,-10,-3,-4,11,-1,6,5
0,4,14,3,2,0,2,3,5
8,7,22,2,0,6,10,-12,5
-3,-6,-5,1,2,-1,1,-5,5
1,9,32,3,-2,7,3,-6,5
-18,-14,-45,-7,-2,-11,-17,-30,5
3,-1,-13,-1,-3,-6,-10,3,5
2,-9,-12,3,0,-2,-1,-7,5
1,8,33,6,2,11,12,16,5
-5,-10,-14,-6,-1,5,1,-1,5
6,-6,-48,-4,-6,-9,1,5,5
-2,-5,-12,-8,-4,-10,-8,-2,5
1,2,13,7,-1,2,0,-1,5
10,-6,-28,-6,-3,-10,0,11,5
-3,9,22,4,-1,10,1,3,5
-2,-6,-14,-2,1,14,4,3,5
1,-1,-11,0,-5,-34,-9,-1,5
8,0,11,-1,0,12,3,-1,5
6,11,17,1,4,-5,7,-11,5
-11,3,1,1,-5,10,-9,2,5
-8,-11,-9,-2,-1,-11,-3,0,5
4,1,-9,-2,-4,-23,-8,11,5
10,3,4,-2,4,20,16,4,5
-6,16,44,7,3,6,-5,-11,5
-1,-1,-11,-5,-4,4,3,9,5
5,8,20,2,0,2,0,0,5
-14,-27,-39,-5,2,13,13,18,5
3,-6,-37,-5,-6,-32,-18,-33,5
5,-6,-24,5,3,10,-6,-9,5
-19,-7,-3,-2,1,0,4,10,5
-1,8,30,1,-1,5,0,-24,5
15,11,23,1,-1,-9,4,17,5
-6,-11,-38,-8,-3,1,-4,-4,5
10,13,34,7,2,2,6,17,5
-8,13,9,3,-3,-20,-15,-11,5
-14,-30,-27,-11,-2,12,10,10,5
8,5,14,0,3,6,-8,-7,5
2,-5,-7,0,-5,-25,-9,-10,5
4,1,15,1,5,14,0,7,5
-5,8,15,3,0,11,1,-10,5
10,-2,-8,-2,-6,-28,-11,-2,5
-11,-6,1,-1,3,29,5,-4,5
0,2,15,1,-2,-11,-4,7,5
-1,3,-21,1,3,23,12,7,5
4,2,13,-7,-3,-10,-4,-16,5
4,-14,-45,0,-2,-5,-2,8,5
-1,4,12,-4,-7,-8,-9,2,5
4,-1,14,2,5,2,0,8,5
-5,-3,-21,-5,-4,14,11,0,5
-7,11,24,9,-1,-11,-10,-28,5
-1,-15,-13,-11,-4,-10,0,13,5
15,9,5,2,-3,-2,0,4,5
-28,-26,-34,-2,-3,2,-7,-2,5
9,1,1,0,5,3,16,21,5
-2,6,7,5,-4,-10,-17,2,5
-11,6,31,5,4,7,-2,-29,5
14,26,39,3,2,-7,10,9,5
-12,-13,-38,-2,0,23,6,8,5
8,7,7,3,0,-8,3,-7,5
-1,-16,-41,-9,-5,-10,-4,12,5
5,-6,-6,0,1,2,0,-10,5
-21,0,9,-2,-2,-13,-8,-7,5
9,26,40,4,4,19,15,2,5
-1,-31,-59,-8,-5,-17,-12,10,5
-11,-2,27,-2,-1,8,-2,-12,5
16,14,27,2,0,-11,-1,10,5
2,-3,-4,-1,-3,-1,0,-12,5
-20,-7,-4,4,0,12,9,4,5
12,5,10,5,1,13,8,7,5
5,-21,-43,-3,-8,-34,-21,7,5
-25,-7,11,-9,-5,-4,-17,-58,5
2,16,29,4,-1,-8,6,14,5
18,5,-3,0,1,26,9,11,5
-10,24,66,5,4,-12,-4,-3,5
0,-27,-75,-3,-2,1,4,24,5
3,-22,-58,-6,0,-15,2,-17,5
-10,-12,-38,3,3,17,-4,-5,5
3,6,17,-7,-4,-15,-5,0,5
2,-1,-10,-1,2,10,2,18,5
-2,13,45,3,0,-8,3,8,5
-5,12,36,3,-1,-6,-4,-7,5
18,3,-15,-5,0,18,7,-10,5
3,-19,-15,-1,0,0,9,19,5
12,6,8,5,2,-13,-13,15,5
10,29,77,11,3,-1,1,-5,5
-17,-49,-93,-10,-3,11,1,-3,5
-13,6,18,-1,-4,-12,-1,6,5
7,9,17,3,-3,-2,3,-3,5
5,-2,-15,-2,4,16,4,1,5
-3,12,28,-1,-2,-19,-10,-6,5
6,1,-3,5,-1,5,4,-1,5
-8,-3,5,-14,-4,-1,-6,-1,5
-4,-4,-15,-2,0,-8,-2,-4,5
0,2,5,0,-2,16,11,-6,5
-3,-5,-2,-1,0,-19,-6,7,5
6,16,34,6,-1,20,-1,-7,5
-4,-13,-9,-4,-3,-10,-6,-8,5
8,16,31,9,0,-5,0,-9,5
-8,-21,-13,-6,-2,6,0,-15,5
8,4,-2,0,-3,-12,-2,4,5
-8,-14,-27,-2,-2,-7,-5,-11,5
-2,12,39,0,1,7,3,-3,5
-1,-3,-5,0,2,7,2,5,5
0,1,12,-1,4,16,10,2,5
-9,-9,-8,-6,-7,-23,-19,13,5
-1,7,7,3,0,-5,-13,-33,5
6,8,13,3,-2,-8,1,19,5
-9,2,13,2,6,29,11,-27,5
-1,0,-8,-5,-6,-26,-5,10,5
10,-23,-36,-6,0,5,-5,13,5
-21,-8,-17,-4,-2,5,3,-3,5
10,0,1,2,2,-6,0,4,5
-4,15,26,8,3,16,6,-7,5
-4,-3,10,-6,-4,-22,-8,4,5
22,1,-11,-2,-1,-11,-7,-3,5
-3,6,31,-1,-5,7,-6,-10,5
0,-9,-26,-2,2,1,6,4,5
5,0,-1,1,2,5,2,-1,5
-3,-3,7,1,0,8,6,-4,5
-10,-5,-22,-1,-1,-9,-2,-15,5
12,-2,-13,-5,2,12,8,20,5
-4,1,4,-4,-4,-12,-16,-15,5
-3,19,32,4,1,3,4,0,5
0,-29,-77,-10,-2,-9,-3,10,5
-12,9,45,0,-2,-7,0,3,5
-4,-29,-67,-5,-6,-5,3,7,5
8,10,19,1,1,4,-2,-8,5
-3,3,9,-1,-4,-12,-2,16,5
-9,-8,-24,2,0,11,5,9,5
9,25,61,7,8,13,5,-8,5
10,-12,-37,-4,-1,10,-3,4,5
3,10,17,7,1,-13,-9,13,5
-19,-15,-23,-8,-8,-13,-17,-4,5
-7,-1,11,4,3,-7,3,10,5
18,22,20,6,1,14,4,-1,5
-5,6,34,-3,-1,7,8,4,5
1,-38,-94,-7,-3,-18,-17,-35,5
-9,0,11,-1,-1,10,3,6,5
-1,-4,-4,-1,-1,-8,0,7,5
1,17,35,5,-1,11,-5,-14,5
-9,-4,-2,-5,-2,-21,-6,0,5
-9,-10,-14,-2,-5,8,-1,-2,5
-11,-12,-2,1,1,12,15,6,5
8,2,-16,-1,-3,-10,-5,5,5
-2,6,4,-5,-3,-3,4,9,5
-4,-4,-11,-3,0,6,3,7,5
-1,10,23,3,4,5,-5,-17,5
3,-2,-17,1,-1,-7,-1,13,5
15,12,27,6,-3,6,5,11,5
-9,-18,-42,-11,0,4,5,17,5
1,-12,-29,-4,-7,-2,-5,1,5
-8,-1,12,1,1,-16,-1,3,5
18,12,30,5,2,26,4,-9,5
0,18,28,0,-8,-32,-13,0,5
-15,-11,-38,-8,-5,18,-4,-21,5
-9,-18,-18,2,5,-12,-1,-6,5
-2,8,25,0,2,11,6,31,5
0,0,-6,0,-3,-13,-8,-27,5
2,12,22,1,2,-5,3,3,5
2,9,13,2,0,7,6,29,5
0,-3,2,-4,-1,2,-6,-54,5
12,4,-1,0,-4,3,7,6,5
-8,-5,0,-3,-2,-20,-13,-8,5
-17,-30,-49,-4,-1,15,8,-2,5
-4,-3,1,-2,1,-9,-1,-2,5
-5,4,11,0,1,15,8,-2,5
16,6,11,4,3,-25,5,20,5
-4,9,16,-4,-8,27,-14,-1,5
1,3,-15,-3,-3,-21,-15,-15,5
-9,-20,-24,-8,-1,1,11,22,5
-3,-6,-22,5,-1,-6,-3,-12,5
-10,1,16,-6,-2,-3,8,2,5
7,0,-16,2,1,6,8,13,5
16,9,35,7,5,-6,-3,-12,5
-4,1,3,-2,2,13,1,-3,5
5,-1,13,-3,-8,-20,-7,10,5
-4,7,18,-3,-1,1,0,-27,5
-10,-11,-9,3,4,-9,11,13,5
2,7,22,0,-1,38,3,-1,5
14,-3,-25,0,2,-24,-10,-12,5
13,8,12,1,1,3,5,13,5
-18,-7,-13,-4,-3,8,3,18,5
1,-4,1,-3,4,-18,0,0,5
0,4,12,0,-5,9,-2,-13,5
-5,9,17,-7,1,-14,-1,19,5
7,-1,-36,-2,-3,9,-6,-25,5
1,-12,-13,-5,0,14,16,39,5
6,7,20,4,-3,-18,-7,10,5
-5,-19,-59,-2,-2,-5,-3,2,5
6,21,40,0,3,12,3,2,5
-5,9,37,7,-3,-13,-2,8,5
6,-22,-73,-15,-1,1,-2,-18,5
-9,0,-6,1,-1,5,2,18,5
-3,5,20,-1,1,1,-4,-12,5
-10,-29,-35,-9,-7,-10,-1,-2,5
0,4,9,2,4,-23,-6,-8,5
2,-4,4,5,1,38,2,1,5
3,0,5,3,5,5,-2,0,5
-1,0,-6,-9,0,5,1,-18,5
-2,12,28,5,-2,-19,2,16,5
-12,-3,-4,-1,-7,-29,-14,1,5
-1,-8,-20,-3,-2,7,0,4,5
2,-1,-3,2,-2,1,-3,-2,5
9,-1,-1,8,4,21,17,31,5
6,16,32,5,1,-8,-2,-21,5
-10,-8,-10,3,1,17,6,2,5
4,-4,-38,-6,-4,-38,-21,0,5
-17,-2,23,-2,-3,10,-1,-23,5
4,-8,-12,-2,2,14,4,3,5
9,19,43,13,5,1,7,8,5
1,19,21,0,-5,5,2,-2,5
8,-6,-22,-2,6,13,4,12,5
4,-10,-7,-7,-3,-12,2,29,5
-15,-15,-21,-5,-12,-32,-28,-27,5
1,8,6,4,3,16,9,4,5
-1,12,21,4,2,6,8,25,5
10,14,28,2,-3,-16,-5,-5,5
10,0,-12,-4,-1,23,5,8,5
-5,-22,-35,-2,-1,-28,-21,-27,5
-5,1,3,-4,-4,2,-3,2,5
-8,-13,-15,-1,0,7,6,0,5
0,2,1,10,2,-7,2,-11,5
-3,20,63,9,-2,13,4,-1,5
13,4,-6,-6,0,-4,-2,-32,5
-14,-21,-43,-6,-2,7,-8,-20,5
9,-5,-24,-4,-4,-10,3,7,5
-29,-3,-3,-2,1,-12,-9,28,5
12,2,4,5,-1,6,4,0,5
-11,6,27,3,1,-8,-5,-6,5
10,0,-8,-5,-3,5,11,19,5
10,0,3,-4,0,3,0,-13,5
1,24,43,6,1,6,2,1,5
-12,-44,-65,-12,-1,-1,7,-15,5
-6,-6,-11,-6,-4,-10,-7,7,5
-4,-1,17,4,2,9,7,-21,5
11,4,-3,1,1,8,5,12,5
0,10,9,-1,-5,-11,-7,-29,5
1,-6,-4,-9,0,8,2,14,5
1,9,-1,3,0,7,8,7,5
-7,-18,-33,-7,0,-2,-16,-43,5
4,1,3,0,-2,-10,-5,15,5
-3,-3,-4,1,-1,-10,-5,-3,5
11,12,18,-1,0,19,6,24,5
-3,1,-4,-3,-4,-21,-6,-17,5
-13,-6,1,-3,-3,-7,-1,25,5
8,8,28,2,5,20,2,-23,5
3,-17,-26,-8,-3,-11,1,1,5
-5,-4,2,2,1,7,6,4,5
4,19,29,6,4,9,8,17,5
1,2,-17,-2,-4,-9,-12,-39,5
-5,15,49,11,6,0,1,1,5
-5,-44,-99,-17,-6,-16,-2,13,5
11,11,23,9,2,25,6,-6,5
-7,-2,-2,-1,-3,-23,-6,24,5
12,3,-16,-2,1,14,3,-16,5
13,14,28,5,-3,-31,-13,-23,5
1,7,5,-3,2,29,6,-6,5
-4,-9,-8,-1,-1,-32,-4,10,5
-13,-13,-15,-3,1,0,-5,-11,5
-9,-6,3,0,0,22,16,18,5
9,2,10,-5,-2,-5,4,-7,5
0,8,26,4,2,-2,1,8,5
5,5,2,1,0,7,-11,-24,5
-3,0,4,-3,2,7,7,9,5
-9,-5,6,5,0,-11,1,15,5
-4,5,43,-2,-7,-13,-20,-25,5
10,-18,-65,-6,-4,-1,6,14,5
-3,8,35,10,0,5,-4,1,5
-6,-10,-44,-6,0,1,0,2,5
1,3,-3,3,2,11,16,3,5
-9,-4,-2,0,-1,-4,-4,-9,5
4,12,38,-1,2,2,-4,9,5
5,2,3,0,1,-5,3,-6,5
-8,-20,-56,-4,1,23,14,17,5
12,9,16,2,0,-18,-8,0,5
-7,-5,-8,2,-2,8,-2,-7,5
4,-3,5,-1,-3,-16,-15,3,5
-2,14,26,2,-1,15,2,3,5
-9,-9,-16,-2,-2,-10,-2,-17,5
10,3,-3,-5,-5,-2,5,-6,5
-7,-10,-7,0,0,-11,-11,1,5
-4,2,4,-3,-2,-10,-11,-1,5
-3,-3,6,-1,-3,-4,5,24,5
-12,0,0,-2,1,1,-5,-31,5
12,7,13,9,3,11,15,30,5
-4,-6,-12,-7,2,17,7,11,5
6,7,25,-1,0,-18,-9,1,5
-17,-7,-8,-2,-1,0,1,-7,5
-9,-4,-8,-3,-2,5,6,-5,5
-2,-18,-26,-3,0,0,-5,-7,5
11,17,41,6,-1,-9,0,15,5
5,2,-11,0,1,3,-3,0,5
-2,25,38,6,-1,2,5,-20,5
-12,-50,-82,-1,1,1,-8,3,5
0,-10,-27,-8,-3,-2,0,-4,5
-15,-1,11,2,2,1,0,37,5
21,8,-3,2,1,-12,-12,11,5
-1,15,19,3,-5,4,4,-11,5
5,1,-1,1,0,3,6,20,5
1,7,24,3,-1,2,-4,1,5
-3,-16,-55,-7,-2,-8,1,14,5
3,7,17,3,0,-5,-1,-12,5
-7,-7,-6,-2,0,6,1,6,5
-21,4,12,-3,1,-1,12,-14,5
0,-2,-4,-4,-5,7,-7,-23,5
31,31,46,0,-5,-31,-10,-3,5
-10,-24,-72,-3,0,8,-1,-7,5
-5,-4,-4,0,-2,-6,-3,-5,5
-15,-10,-31,0,-1,7,0,-11,5
-5,-17,-26,-11,-3,-4,9,18,5
13,17,46,-1,-1,0,-10,-5,5
7,-7,-14,6,1,7,2,-14,5
3,6,17,2,-1,-12,-1,-7,5
-7,15,47,6,7,16,0,-19,5
-11,-5,-39,-3,1,-1,3,1,5
5,-11,-17,-3,-6,-17,-9,7,5
-6,11,38,0,2,34,13,-5,5
19,-9,-39,-4,-13,-68,-50,14,5
-3,4,24,5,1,14,10,2,5
4,3,-5,-1,0,1,1,7,5
13,5,8,0,0,8,8,22,5
6,0,28,0,6,12,20,-3,5
-17,5,8,-1,-3,-9,-13,-10,5
-5,-30,-70,-11,-7,-8,-11,-20,5
3,-1,25,0,-3,-1,2,15,5
-5,10,-5,2,1,15,12,5,5
-2,-9,4,-4,0,-10,0,-19,5
21,-2,0,6,1,8,2,15,5
-8,-13,-39,-9,-2,-9,-10,-11,5
-20,-2,15,2,0,-2,5,9,5
-2,14,-11,-4,-5,5,3,5,5
10,-2,36,0,-1,2,0,5,5
-6,10,-7,3,0,-21,-10,0,5
9,-16,-49,-6,-1,16,7,3,5
3,6,26,4,7,14,12,-13,5
13,22,32,-5,-3,-31,-28,0,5
-23,-18,-18,-4,-1,-3,-3,-2,5
-5,3,4,-1,0,13,4,-3,5
-3,0,2,2,-3,-6,-4,24,5
1,13,30,-5,4,17,20,-33,5
-11,-17,-32,-1,-3,-14,-13,-30,5
0,-2,-17,0,0,9,-1,-36,5
-6,-6,13,6,3,12,10,9,5
1,14,16,3,-1,-12,0,22,5
10,8,3,3,1,-2,-6,15,5
-7,-8,-7,1,4,6,13,5,5
22,4,11,2,-1,-6,-8,0,5
9,8,-3,2,3,12,7,-3,5
-63,-39,-27,-8,-5,-4,4,-5,5
2,8,20,0,-2,12,10,16,5
-1,4,3,-1,-6,-31,-19,-8,5
6,4,-3,8,2,-7,0,20,5
36,9,26,-7,-6,9,3,5,5
-2,4,3,0,2,8,6,9,5
3,-17,-33,-7,0,3,4,11,5
-17,-1,4,0,0,1,-10,-35,5
16,8,10,8,2,-8,0,18,5
0,1,7,0,2,10,9,15,5
-16,2,5,-2,-3,-12,-7,-16,5
-5,-2,-12,1,-2,5,-6,-8,5
1,-7,-12,-4,-1,13,6,-11,5
4,9,19,-3,-7,-22,-17,-8,5
2,14,36,5,5,17,16,4,5
-3,-25,-38,-8,-4,-9,-13,18,5
5,-4,-13,-6,-4,-4,-4,1,5
-3,4,9,1,-5,-29,-19,-1,5
-4,1,11,0,-2,7,8,-2,5
3,11,38,4,1,16,15,14,5
12,-17,-45,3,4,7,1,-22,5
3,2,1,0,0,-4,-4,6,5
-18,-11,-23,-9,-3,5,-3,-8,5
-7,10,27,-1,-1,-3,-1,15,5
4,-4,-26,-3,1,-6,3,7,5
18,-4,-17,-1,0,5,0,-11,5
6,27,61,5,-1,-14,1,7,5
6,-33,-55,-6,-2,42,18,5,5
-35,-15,-10,-4,1,-21,-6,-14,5
-9,8,16,4,-4,0,-8,-9,5
7,-11,-21,-6,-7,-23,-18,5,5
9,27,43,5,0,-8,-6,-3,5
23,0,-26,-4,-3,16,8,2,5
-11,-6,-9,-7,-1,6,5,10,5
-6,-5,1,0,2,13,3,-7,5
-6,-11,-41,-1,-1,-20,-2,-4,5
14,21,44,4,-4,-8,-11,-33,5
-8,0,0,-1,-4,-21,2,10,5
9,-3,-20,1,4,31,7,-14,5
-2,-2,2,0,3,-15,-1,10,5
-2,0,19,1,-2,22,5,12,5
-13,-13,7,1,2,-16,-7,-10,5
-19,-18,-34,-8,2,16,3,4,5
11,17,30,6,0,-3,7,2,5
15,21,54,-1,2,-3,-5,-36,5
-2,-26,-51,1,0,5,8,1,5
-8,-5,-7,-2,-10,-32,-19,3,5
-8,-8,-33,-3,1,5,7,-18,5
23,11,28,2,-4,-10,0,7,5
-13,21,60,6,1,17,-2,-9,5
-44,-31,-65,-13,-3,-8,5,27,5
-9,-7,10,5,-1,-5,-6,-49,5
4,11,18,-1,2,3,5,35,5
22,-8,-21,6,5,7,-1,1,5
14,11,12,2,2,-10,0,-11,5
-6,-5,10,-9,-3,1,-7,12,5
-1,-9,-10,-2,1,3,1,3,5
10,3,-5,-7,-1,1,0,-2,5
3,-2,-3,-9,-6,-8,-14,-20,5
-12,8,29,3,3,1,7,27,5
-5,2,-22,3,-1,-12,0,1,5
-5,-11,-15,4,-1,21,6,23,5
7,-6,2,8,1,-4,9,-13,5
12,4,-21,0,1,1,-3,-18,5
-4,33,90,7,3,22,7,19,5
-25,-64,-109,-19,-7,-36,-10,8,5
38,23,46,0,-2,11,-3,10,5
-35,-18,-25,-10,-6,9,2,1,5
-1,-6,-7,7,2,-17,2,12,5
14,39,61,5,1,2,-17,-23,5
-7,-35,-74,-8,-1,3,12,7,5
1,9,45,1,-5,-11,-10,-10,5
-5,-18,-72,-10,-4,7,4,-23,5
20,9,27,7,5,12,16,20,5
-20,7,11,6,-1,-9,-10,-17,5
-2,-7,-21,0,-1,4,-1,24,5
-6,1,6,-2,1,-10,-2,12,5
1,9,8,-5,-3,-5,-13,-43,5
5,9,32,6,0,3,11,3,5
1,-7,-7,-2,1,10,1,10,5
-16,-14,-25,-9,-2,-1,-15,-29,5
4,13,13,1,-1,2,8,4,5
2,0,-1,5,-4,3,-4,-5,5
-1,11,28,2,0,-11,-1,-15,5
12,-3,-9,4,-1,-10,-6,21,5
-1,1,9,-5,-2,19,8,-14,5
9,-13,-11,1,5,0,1,4,5
-15,-23,-55,-11,-4,0,4,1,5
5,21,34,-1,-2,2,0,1,5
-24,6,38,4,-1,-12,2,7,5
22,2,-39,1,1,11,1,5,5
5,3,14,-10,0,-6,-3,-5,5
-12,-4,-6,-4,-1,-2,-1,5,5
2,9,3,2,-2,-25,-8,0,5
8,21,55,5,2,19,-8,-19,5
26,-12,-52,-4,-1,3,6,3,5
-17,-17,-35,0,7,18,13,18,5
-11,-11,-13,-8,-11,-64,-28,33,5
-7,10,42,-1,-5,12,-4,-4,5
0,-6,-21,2,0,-10,-5,35,5
13,-5,4,-2,-5,14,3,-45,5
7,3,0,-1,1,17,10,3,5
-11,-8,-12,-8,0,-8,3,7,5
-2,14,17,2,-3,-6,-2,5,5
-2,7,20,3,0,-2,4,12,5
18,3,-23,-1,-1,12,0,-23,5
-22,-9,1,3,-1,-15,-7,8,5
5,-5,-31,-8,-1,6,4,-13,5
-3,1,1,0,-5,1,-2,3,5
-6,-8,-11,-3,1,1,-2,-9,5
27,2,-18,-2,-3,7,3,8,5
-16,10,32,10,4,-13,-2,-3,5
-11,-10,-21,-3,-5,-21,-13,25,5
15,11,10,-2,1,22,8,21,5
2,22,50,3,3,-4,-2,-43,5
-7,-44,-95,-9,-5,-1,5,6,5
-7,0,29,1,-1,4,-6,-16,5
-8,-3,3,3,5,19,11,0,5
13,7,-8,-3,-6,-25,-10,9,5
-1,9,38,0,-3,-7,-21,-34,5
16,-1,-10,3,2,-9,6,14,5
-8,-6,3,0,-2,11,2,8,5
-14,0,-10,0,0,2,11,18,5
6,14,31,2,2,11,3,2,5
-9,-23,-46,-6,-11,-16,-9,-4,5
10,7,11,1,3,-12,-6,1,5
4,9,24,-2,0,-11,2,-4,5
-10,-11,-7,-2,0,22,9,-1,5
6,-6,-1,-11,-2,6,-2,6,5
0,7,-6,2,3,-4,10,3,5
-7,-22,-33,2,-3,-1,1,1,5
-3,-4,1,-4,-2,-12,-1,17,5
-1,12,24,5,2,0,-3,2,5
-8,1,7,-4,-4,4,-5,-3,5
12,5,8,3,4,1,9,20,5
6,3,-6,6,1,6,-1,9,5
13,2,4,3,3,0,7,4,5
-15,-12,-11,-4,0,2,6,7,5
-14,-6,-11,-8,-4,-3,-13,-18,5
2,5,6,1,-2,-13,-8,-11,5
2,12,15,1,0,-3,1,3,5
15,23,79,10,5,16,7,-8,5
19,-18,-48,-2,3,12,9,23,5
-42,-52,-90,-21,-9,-13,-8,-35,5
-9,2,7,0,0,-5,-2,-22,5
-8,6,9,2,-1,6,-2,-12,5
1,21,39,6,1,5,-5,5,5
23,10,3,4,-2,-9,-1,7,5
-5,2,17,4,2,1,0,-5,5
4,-9,-32,-6,-2,-1,-2,-4,5
-5,-7,0,1,3,4,5,4,5
13,11,2,-2,1,10,5,-9,5
1,24,57,8,4,4,0,3,5
-7,-33,-75,-21,-7,-19,-3,37,5
-8,-4,-7,-3,2,-6,-9,-42,5
7,8,35,7,2,15,7,12,5
-9,3,7,1,-3,-17,-3,-14,5
14,2,-2,3,2,33,-1,2,5
-15,-6,-2,-3,-2,-31,-13,7,5
10,14,6,4,-3,-3,-8,-26,5
1,-13,-26,-8,-2,5,3,2,5
-5,-19,-44,2,-1,-11,5,0,5
-12,-11,-16,-5,-5,3,-1,-6,5
12,18,44,9,2,6,6,17,5
2,21,25,7,3,-3,-2,0,5
5,-25,-20,-3,-2,-4,0,-12,5
12,23,31,1,-1,3,3,-5,5
-40,-30,-24,-4,-1,-5,-1,21,5
6,-19,-31,-3,-3,0,1,-6,5
-4,10,7,-4,-5,-3,-2,-6,5
2,-4,-4,-7,-5,-3,1,-12,5
7,19,42,4,-2,-16,-7,3,5
1,2,-22,-2,-3,31,0,10,5
-7,-4,-12,2,6,-15,-2,-10,5
14,-8,-12,3,3,17,1,10,5
0,4,0,-3,-3,-13,1,-2,5
-4,-6,-9,-3,-2,-5,0,2,5
-12,9,23,6,1,13,10,-9,5
1,8,13,3,-3,-23,-15,9,5
6,16,23,0,2,10,4,2,5
-10,-38,-66,-10,-4,-5,-2,0,5
7,9,17,2,2,3,4,2,5
-2,1,31,7,4,22,22,13,5
15,-10,-61,-4,3,-6,-8,-8,5
-24,-4,14,-3,-5,-8,-16,-22,5
17,22,35,9,-1,2,-3,-22,5
-16,-9,-23,-2,-2,-8,-5,-10,5
1,-16,-34,-19,-6,-6,-1,-1,5
14,5,8,6,2,7,12,-4,5
-1,-8,-16,-3,-5,-12,-11,-18,5
-16,-2,9,4,2,8,3,-5,5
2,15,22,10,3,11,8,13,5
-5,-1,-3,-7,-1,-12,-8,6,5
7,-1,13,1,-3,2,1,5,5
-12,-9,-1,-9,-9,-7,-6,7,5
11,1,7,0,-2,-5,-11,-23,5
-13,7,16,4,0,-5,0,-1,5
-48,-8,6,-1,2,10,3,4,5
-7,-12,-23,0,-1,-9,-6,9,5
-5,2,5,3,-1,-13,-5,-1,5
36,19,33,-1,-2,1,3,7,5
9,-9,-20,-4,-1,7,-4,-4,5
-4,-4,-10,0,1,6,5,-2,5
-7,-1,17,6,0,0,2,-12,5
4,3,-3,1,4,-1,4,10,5
-3,1,-14,-8,-7,-12,-1,-16,5
15,-4,-2,-3,2,4,4,13,5
1,-5,-7,-3,-1,8,-1,-32,5
-10,1,15,1,-1,-5,-5,2,5
4,9,12,6,-1,1,-6,8,5
0,1,-4,-3,2,5,3,0,5
-3,2,14,-1,-4,-23,-10,6,5
26,13,20,0,5,36,8,4,5
-24,-30,-59,-5,-1,-14,3,3,5
-1,-5,-19,-4,-5,-4,-5,-8,5
-13,-17,-12,-7,-2,-3,-9,11,5
0,4,19,5,1,-4,0,0,5
22,15,17,6,3,3,7,16,5
7,12,21,2,-1,16,7,1,5
2,10,11,4,2,-8,1,17,5
-15,-13,6,-10,-5,-13,-5,-7,5
13,-15,-45,0,1,-3,0,16,5
-25,3,7,-1,-3,-4,-4,-6,5
-3,-11,-31,0,1,10,8,6,5
17,11,3,3,0,11,5,3,5
-12,0,7,-3,-2,-15,-9,14,5
-20,-6,-3,1,-1,-4,-7,-28,5
6,18,21,-5,-2,14,8,3,5
7,-13,-25,4,5,2,1,-1,5
-9,-8,4,0,-2,-12,-4,0,5
15,10,21,10,0,-8,-5,-12,5
-4,-21,-34,-7,0,21,6,19,5
1,-3,-34,-5,-4,-19,-4,-29,5
-8,14,53,6,-1,-1,-13,-9,5
11,10,22,-6,0,3,7,20,5
-8,-14,-35,0,2,3,-1,-23,5
-2,-14,-28,0,1,7,9,21,5
8,6,2,-1,0,-6,-1,-8,5
10,8,20,0,0,-4,-1,7,5
17,9,22,2,-2,5,4,4,5
-31,-16,-49,-7,-5,-13,-13,-4,5
-2,-4,-11,-3,1,14,13,-4,5
12,-8,-21,-1,-2,1,-2,9,5
-2,6,16,0,-2,-2,4,-9,5
0,15,46,4,0,-2,0,8,5
0,-9,-26,-4,-1,-2,1,-6,5
-4,-7,-24,-4,-2,9,11,16,5
-18,2,25,3,-4,-18,-14,-37,5
0,-6,-4,-8,-3,-2,4,5,5
0,27,41,8,2,7,-5,-16,5
23,5,-5,0,-1,-4,4,19,5
-12,-8,-49,-9,-2,-1,-6,-25,5
-13,1,1,3,-1,-7,-2,9,5
29,8,39,3,-2,2,-2,5,5
-24,-10,-18,-7,-2,-9,-3,-4,5
-8,-7,-4,2,2,-2,8,30,5
3,5,8,0,-4,3,-3,-6,5
-1,0,3,-2,2,-3,-3,-7,5
2,6,15,3,0,-2,2,-1,5
-1,1,6,-1,1,2,1,4,5
10,1,5,0,-2,-5,-8,-1,5
9,11,16,1,-1,4,1,-8,5
-2,-25,-57,-5,-1,-1,9,5,5
-21,-14,-7,-4,-1,3,-8,3,5
-6,-6,-4,4,2,5,5,14,5
-7,5,10,-2,-2,-4,0,11,5
28,5,-4,-1,2,13,-3,-20,5
10,25,65,8,5,-1,3,9,5
6,-8,-40,-14,-1,-12,-7,-8,5
-10,-13,-25,-7,-5,17,-2,8,5
-5,13,25,4,2,-21,-7,2,5
6,-11,-23,-4,-3,-10,-9,5,5
-25,-11,15,2,-1,12,10,13,5
2,2,3,0,3,-7,2,0,5
16,11,8,-1,-3,-3,-2,4,5
1,-12,-41,-3,-2,-7,-1,4,5
-3,-1,-7,-1,-1,10,-1,-32,5
-3,-8,-13,-4,-1,-6,2,12,5
-12,7,26,5,0,-3,-2,-5,5
28,34,99,7,-2,-7,5,7,5
-13,-46,-90,-10,3,17,9,-24,5
-26,-27,-5,-10,-6,-37,-23,1,5
-18,-19,-27,-4,-4,3,-6,-5,5
2,15,18,2,-4,-6,-2,-4,5
28,21,31,8,7,13,17,22,5
4,15,6,-1,-4,6,10,0,5
4,-12,-23,-2,3,-2,-6,1,5
-4,6,16,7,0,17,6,-17,5
-13,6,26,0,-7,-25,-17,17,5
6,-15,-63,-5,1,-2,5,-3,5
-3,4,15,2,-1,17,-2,-21,5
3,3,3,2,4,-2,0,1,5
5,42,93,7,-1,2,1,2,5
7,-25,-57,-13,-7,-32,-12,-5,5
1,-10,-40,-8,-2,-2,-9,8,5
-23,-13,3,-2,-2,-6,-5,-6,5
-4,-10,-21,3,1,-6,7,16,5
28,45,88,20,6,36,9,1,5
-32,-4,-2,3,4,9,12,-14,5
5,-7,-19,-8,-6,-26,-9,18,5
0,0,-4,-1,-3,1,-7,-7,5
-18,-12,3,4,2,13,24,10,5
13,15,22,1,-5,-16,-17,-29,5
-4,-2,-6,4,7,27,9,9,5
2,3,-4,-3,2,4,2,-7,5
-8,-21,-24,-4,-1,-13,-15,1,5
-3,-2,9,2,2,3,8,-8,5
4,10,23,3,0,-1,-3,16,5
2,-3,-5,-2,-1,2,-5,-7,5
3,1,-9,-4,-1,4,-3,-3,5
5,12,29,1,-1,-3,6,31,5
-5,1,-10,-6,-2,1,-7,-50,5
0,-22,-43,-7,-3,-10,-3,15,5
-9,15,45,4,0,5,1,-10,5
-5,-31,-67,-3,2,-4,2,8,5
9,-3,-12,-2,1,4,3,28,5
2,10,27,0,-6,-16,-16,-7,5
-7,3,7,8,3,1,1,2,5
6,8,17,-3,-1,0,-1,-3,5
-1,-2,14,0,0,9,5,8,5
9,-9,-29,0,0,-5,0,28,5
4,-2,14,-1,-1,-1,-6,0,5
7,-15,-61,-11,-7,-5,12,21,5
-34,-13,-20,-1,7,2,1,58,5
24,12,24,2,1,9,4,-24,5
10,-5,-20,-6,-4,-12,0,28,5
14,9,31,2,0,-6,-5,-44,5
2,-1,0,1,5,5,0,-75,5
15,7,20,0,-5,-4,-7,16,5
7,11,-26,-6,2,11,8,19,5
-64,-36,-36,-4,-1,-7,-5,-68,5
-12,17,31,8,-2,1,-9,44,5
-8,-25,-75,-1,7,13,15,3,5
18,8,26,-3,-1,-15,-3,-29,5
26,28,63,3,-2,5,2,36,5
-2,-20,-41,-10,-3,2,6,-18,5
-2,-14,-35,-7,-6,-10,-6,0,5
-7,3,3,-1,-5,-9,-6,-5,5
-14,-4,-4,3,3,36,6,18,5
19,5,4,0,-1,-49,-22,-9,5
4,18,41,6,6,13,11,11,5
-4,-8,-18,-3,-1,2,2,-34,5
11,13,24,1,3,0,1,21,5
1,3,14,1,-4,1,-1,-54,5
17,-3,-33,-2,2,12,7,7,5
-19,-8,-2,-2,-2,-15,-16,-7,5
-27,-38,-57,-9,-7,-10,-2,1,5
-2,4,2,-5,-4,12,8,25,5
9,19,68,10,1,-19,-2,-6,5
-11,-13,-55,3,11,36,10,-4,5
25,7,11,-6,-7,-43,-27,20,5
-10,-5,-7,-1,-4,13,5,3,5
0,6,24,4,1,-4,-5,-17,5
-2,11,33,7,4,11,17,22,5
-4,2,8,8,3,6,-3,-15,5
17,-7,-29,-5,-2,-7,1,15,5
-15,8,28,-7,-6,6,4,7,5
-4,-1,0,0,-3,-17,-13,-37,5
-4,-5,-26,3,1,4,2,-2,5
23,0,8,3,-3,-4,-6,2,5
-6,16,21,3,1,-10,3,3,5
9,-6,-4,-8,-3,6,1,18,5
3,-5,-11,-1,-3,-16,-7,-7,5
7,5,13,5,4,16,12,-11,5
-7,-24,-60,-10,-8,-11,-10,5,5
-19,5,-5,-1,0,3,-4,-33,5
7,18,44,0,-2,7,1,14,5
13,8,31,1,4,-8,7,18,5
-23,-13,-20,2,-3,3,-1,-4,5
-30,14,31,-4,-5,-5,-5,-26,5
6,-15,-47,1,4,0,-3,17,5
-13,-25,-47,-8,-2,-2,-3,-11,5
-5,0,7,1,1,20,4,-23,5
18,-2,-19,-4,-3,-32,-10,26,5
-5,15,56,3,3,4,7,-6,5
2,10,-7,-1,-7,1,-5,-15,5
-16,-15,-16,1,6,14,4,3,5
25,1,13,3,-5,-11,-8,17,5
-13,12,18,-2,3,18,13,-4,5
-9,-19,-22,0,-7,-32,-17,23,5
4,-8,-15,-6,-2,2,-4,-16,5
-25,-9,-7,1,2,2,0,0,5
3,7,18,-4,-2,7,16,28,5
-4,-3,-13,2,3,31,12,0,5
14,44,107,15,3,-34,-19,-27,5
19,-13,-65,-10,-4,18,5,-6,5
0,-47,-105,-5,0,-10,8,1,5
9,33,70,17,18,45,19,-16,5
-42,-30,-29,-24,-18,-51,-20,1,5
3,-8,5,-1,-5,-23,-27,-8,5
-4,4,5,-6,-3,19,0,-10,5
18,3,2,9,2,-4,11,13,5
9,9,14,11,13,35,15,-13,5
-5,11,16,-6,-6,1,12,18,5
-14,5,6,-4,-7,-20,-7,11,5
28,-2,-2,-3,-1,2,-14,-21,5
-11,2,2,-3,-3,-2,3,18,5
6,-7,-7,-1,4,6,-3,-31,5
8,9,24,9,0,-1,4,16,5
-15,-1,-3,-7,-7,-22,-17,-20,5
9,-1,-14,-2,-2,6,-1,4,5
14,0,10,1,0,10,12,18,5
5,17,33,1,-1,0,5,4,5
-3,8,28,7,3,9,6,2,5
-3,-34,-98,-17,-9,-10,-2,18,5
-4,-6,7,-1,-1,-18,-6,17,5
1,15,42,-4,-3,-14,-17,-11,5
-19,-15,-32,-7,-5,0,4,12,5
-9,2,38,9,4,4,-2,-4,5
15,20,19,2,3,12,9,11,5
-22,-29,-37,-14,-8,-10,-6,-14,5
10,8,12,-3,-4,-6,-8,-5,5
-1,7,20,0,0,11,-2,-1,5
-12,-10,-8,3,4,-6,7,6,5
24,19,43,11,0,-8,-11,-1,5
-8,10,5,-5,1,38,13,-1,5
13,-20,-48,-7,-6,-51,-32,-3,5
-35,-15,-3,-3,-8,-13,-14,2,5
2,-3,-4,3,5,12,9,-7,5
1,12,11,1,2,40,23,2,5
16,31,36,0,0,-18,-1,0,5
9,-15,-18,-2,-2,1,1,33,5
-15,-19,-42,-7,-1,-6,1,-1,5
7,-23,-44,-4,-7,-44,-29,21,5
2,13,28,3,6,31,17,7,5
-1,19,27,5,1,7,0,3,5
21,37,72,7,-3,-7,-2,12,5
-22,-19,-46,-10,-3,-18,-17,-28,5
-10,-18,-24,-6,-4,6,4,5,5
-5,-14,-14,-3,-1,-4,8,22,5
15,-8,-25,-4,-1,1,-6,-31,5
5,13,25,1,1,8,4,37,5
8,11,11,-2,-4,-18,-15,-36,5
7,-3,-2,1,0,35,15,-9,5
-19,-2,-7,-3,2,-11,2,1,5
-24,-15,-10,-4,-4,-43,-33,-21,5
-3,-6,-11,1,-3,10,7,6,5
15,35,61,6,3,-8,3,4,5
0,-32,-93,-9,-2,20,-12,-4,5
5,8,33,5,8,21,21,-19,5
-7,3,24,7,1,-17,-10,5,5
13,-14,-71,-6,1,16,11,-5,5
22,8,41,-4,-12,-37,-24,13,5
-34,-13,-21,1,4,32,19,-19,5
5,11,29,5,3,1,7,21,5
0,2,1,1,-2,-3,-4,-10,5
6,16,38,14,11,15,10,-3,5
10,17,20,1,-4,-14,3,36,5
-12,-25,-37,-1,1,2,0,-18,5
-4,1,12,3,-1,11,-5,-9,5
-6,6,5,-2,-2,3,5,23,5
-3,-22,-41,-4,-2,-3,0,-22,5
11,25,38,10,-1,1,2,-1,5
-8,-7,-17,-9,-2,-22,-19,8,5
-28,-16,-1,2,7,33,14,-24,5
2,1,-16,-3,-7,-18,1,37,5
-5,-23,-52,-9,-5,-18,-27,-4,5
13,11,23,4,1,1,13,1,5
2,6,2,0,1,25,0,-14,5
6,5,15,0,1,-11,7,20,5
-2,16,24,-1,4,38,18,-17,5
1,-8,-20,-2,-6,-33,-7,-9,5
3,10,43,9,11,18,-1,10,5
-4,-44,-77,-18,-10,-31,-16,-15,5
12,25,22,-1,-3,-2,0,5,5
-15,-20,-26,-1,-2,19,9,5,5
9,2,-6,-5,-3,-11,10,8,5
8,4,12,-3,-3,-5,-4,8,5
9,14,65,12,2,9,1,-19,5
-34,-2,-3,-6,2,2,10,-6,5
4,-6,-24,-1,-1,1,-6,-12,5
29,22,47,3,-4,-9,-2,15,5
-25,-19,-17,0,1,-8,5,2,5
-2,7,3,-4,1,18,-15,-12,5
-17,-18,-26,-8,-8,-42,-18,-13,5
-11,-3,-13,-1,-3,1,8,2,5
11,1,-5,-2,-2,20,8,-35,5
7,-10,-11,-3,-8,-55,-32,-10,5
16,29,49,13,7,42,15,15,5
-12,-5,-7,-3,1,-8,-1,0,5
-4,-30,-65,-17,-4,21,8,23,5
-14,1,20,4,-2,-17,-15,-21,5
15,16,10,0,-3,-3,4,7,5
-4,-6,-3,-2,-2,-2,-6,-14,5
3,7,12,1,1,-6,1,20,5
-5,-17,-15,-3,-1,14,1,-40,5
2,-9,-4,1,-4,-13,0,11,5
8,-3,-17,-7,-2,1,-2,10,5
-14,1,7,-2,-2,-15,-7,-16,5
10,5,7,3,0,11,7,30,5
3,2,4,3,-1,-2,5,10,5
0,0,7,0,2,6,-1,-25,5
3,18,67,9,4,15,3,-20,5
-5,-31,-50,-11,-5,-14,-2,6,5
-24,-42,-103,-19,-11,-30,-14,-5,5
-19,7,18,8,1,-1,-6,-13,5
4,-14,-2,-1,1,9,12,38,5
6,13,30,8,2,23,-1,-17,5
10,8,16,-1,4,2,10,4,5
17,13,5,4,2,2,9,5,5
6,5,-24,-2,-1,-18,-12,-7,5
11,18,47,5,1,8,13,20,5
-12,-15,-39,0,-1,8,7,2,5
7,11,32,-1,-5,-14,-15,-10,5
-7,0,-25,-5,-2,-3,-3,4,5
13,-7,-46,0,2,-1,13,40,5
4,11,37,3,6,19,-1,-38,5
-19,35,86,7,-7,-15,-19,12,5
1,-51,-101,-10,0,8,16,28,5
1,17,36,-1,-8,-9,-13,-23,5
25,-11,2,0,3,8,5,-13,5
-29,-4,-7,2,9,14,11,12,5
2,16,25,0,-10,-24,-21,-6,5
11,23,49,8,7,26,21,11,5
12,1,-6,1,2,-26,-4,8,5
-3,-32,-55,-2,-3,7,3,-7,5
-18,1,10,-5,4,4,-1,-37,5
-13,12,-5,2,2,-1,0,31,5
-19,-30,-37,-13,-7,-10,-11,-48,5
22,-10,-21,-1,3,9,14,28,5
1,24,47,25,6,4,-5,2,5
-6,-7,-6,-7,-3,-3,-3,-40,5
-9,21,26,0,-1,9,-4,7,5
15,-8,-14,-1,0,-5,3,5,5
9,-1,2,1,-3,1,6,5,5
3,3,20,2,5,-1,-1,6,5
-21,1,2,2,-4,-3,-12,-9,5
-5,-8,-11,-3,-1,-19,-8,-6,5
-6,4,5,-5,-6,-8,-4,16,5
11,30,61,7,2,-17,-29,-13,5
-32,-45,-57,-9,-6,7,8,11,5
16,-9,22,-4,4,28,19,23,5
-11,25,46,6,4,-20,-16,-39,5
-10,-20,-28,-10,-10,-14,-5,-19,5
5,16,19,3,3,11,8,30,5
8,1,-18,-4,-4,-7,-2,5,5
2,-8,-22,-5,-1,5,10,11,5
-2,-2,-2,1,-1,7,0,-12,5
13,9,5,-1,-3,-16,-7,26,5
-18,-2,-6,-3,0,9,-8,19,5
7,2,-17,-3,3,-1,6,-14,5
-6,4,50,0,1,13,18,27,5
-45,-49,-91,-11,-5,-18,-42,-22,5
-2,-13,-25,-3,-3,-7,-10,42,5
31,-6,-4,-1,-1,-3,3,39,5
11,8,12,2,2,24,7,-20,5
24,29,51,8,2,-12,10,18,5
5,9,18,3,-3,10,-3,2,5
7,13,23,3,3,4,10,-4,5
2,-19,-42,-6,-3,-7,-1,6,5
4,12,15,-4,-6,-6,-3,-32,5
11,-4,-4,2,5,20,11,-16,5
-23,-28,-33,-7,-10,-28,-8,4,5
16,3,-4,-3,-1,-6,-4,3,5
-6,16,2,4,0,2,-3,2,5
-14,1,38,4,4,3,7,-24,5
-26,-17,-17,-7,-2,21,6,3,5
2,-7,-20,7,9,-3,6,15,5
12,3,31,-6,-5,-30,-17,-18,5
-5,9,-4,1,-4,3,-9,-49,5
5,5,-1,-1,3,25,5,1,5
-6,-11,-12,6,4,18,17,21,5
16,14,9,-1,3,-11,13,-6,5
-27,-10,6,-5,-8,-26,-26,-10,5
3,-19,-31,-3,-5,-2,-2,-4,5
8,5,2,-2,-2,5,-7,-16,5
-6,-1,12,3,8,43,28,22,5
16,9,1,1,-3,-24,-6,3,5
-11,-29,-50,-7,-2,-13,-10,-9,5
-12,-1,-3,-2,-7,-8,-14,16,5
-6,13,20,-2,-3,13,16,16,5
-5,3,-11,8,1,-21,-2,-38,5
11,18,36,-4,-6,4,-25,-14,5
-7,-3,16,3,1,-3,1,1,5
-1,-20,-42,-6,-5,-18,-12,2,5
22,-11,5,-5,3,22,21,14,5
-69,0,24,4,2,0,10,7,5
1,7,-3,-2,-4,-16,-6,-31,5
7,8,18,3,2,4,-3,8,5
14,12,15,2,0,7,8,7,5
32,0,-11,2,0,-6,-5,9,5
-12,13,26,0,-5,-2,4,7,5
-5,1,-4,6,4,17,3,-18,5
-1,-30,-59,-14,0,-4,-7,-13,5
-4,-8,-21,-2,-6,-20,1,18,5
7,-5,-28,-5,-3,-16,-4,13,5
-8,-10,1,-3,-2,15,11,-24,5
-2,24,72,4,-3,-8,7,0,5
-6,-22,-52,-3,0,15,5,12,5
16,4,-10,-2,2,-3,6,2,5
4,4,11,5,-5,-21,-10,56,5
-26,9,6,-7,1,32,3,-42,5
-7,4,28,6,5,-18,-7,31,5
-6,-17,-29,-8,-5,-5,-4,6,5
12,22,47,0,2,15,3,-7,5
18,-8,-43,9,1,3,-2,-5,5
-21,6,8,-7,-1,-5,5,3,5
-6,-7,-12,-8,-6,-10,-11,14,5
-17,-29,-51,-5,-1,-4,-10,-27,5
-7,26,48,3,-2,9,5,-9,5
31,-13,-46,2,4,-1,-11,-41,5
-13,10,23,5,4,10,7,65,5
-7,2,6,-2,-1,-14,-6,-34,5
24,-5,-13,-3,-6,-29,-27,8,5
-1,16,46,4,1,23,20,19,5
-18,5,19,4,10,19,-2,-4,5
15,-22,-63,-5,-8,-35,-14,16,5
-5,-6,-23,-5,2,16,1,6,5
-5,2,18,1,-4,-25,-8,8,5
13,1,4,3,1,40,13,-12,5
19,41,71,18,7,-11,7,-4,5
5,-3,1,1,7,27,14,18,5
1,-9,-10,-12,-13,-44,-16,-9,5
-19,-22,-39,-6,-2,-4,-8,-77,5
-1,-4,-5,-4,3,14,4,18,5
-27,-6,-6,-1,-4,-6,-2,-7,5
15,-2,17,3,5,15,11,13,5
17,3,-34,0,-2,-17,4,-13,5
-16,-10,9,-5,-2,6,-4,3,5
12,9,16,5,4,6,13,-6,5
6,20,26,5,-4,-22,-6,16,5
20,0,23,1,7,7,-2,-4,5
-26,-27,-44,-14,-7,16,-5,-27,5
2,13,23,5,-4,-44,-23,27,5
10,-14,-32,-6,-1,22,9,9,5
0,3,1,-3,1,6,5,-33,5
21,11,26,3,2,16,21,17,5
-20,-22,-22,-4,-3,-18,-11,2,5
6,10,9,6,-1,6,-5,-29,5
-3,-10,-34,-5,-2,-2,-11,16,5
-5,-24,-46,1,2,-4,5,8,5
15,12,-6,-3,8,20,19,5,5
-15,2,33,-4,-2,0,-8,-46,5
-18,-1,0,4,-1,-1,2,20,5
2,14,22,-3,-3,-5,-3,2,5
12,-9,-27,-4,-5,-8,-3,12,5
-12,5,3,3,3,3,-7,14,5
6,-4,24,6,2,8,9,-10,5
-3,1,5,3,2,-32,-19,18,5
-9,-4,-19,-7,-6,29,2,-29,5
5,1,-10,-2,0,-7,9,-15,5
7,7,22,4,-3,-5,-6,21,5
7,18,14,4,-4,-15,-6,17,5
-12,22,53,3,0,11,13,-1,5
-2,-48,-101,-6,2,18,15,-4,5
0,-3,12,-4,-8,-29,-21,-2,5
4,-12,2,-1,2,5,-3,-27,5
-7,6,-6,-3,3,20,10,8,5
12,22,56,8,7,19,3,7,5
28,0,-16,1,-2,-33,-13,28,5
-53,-1,-10,-6,-4,18,14,-23,5
-16,-23,1,2,2,-19,-16,-11,5
-9,6,35,-1,-2,8,4,25,5
11,16,9,-1,-2,-3,-2,-33,5
16,-3,8,0,-1,9,-2,22,5
-34,-37,-72,-9,-2,-13,-4,10,5
-2,19,51,4,3,10,5,-11,5
-22,-63,-103,-20,-12,-38,-15,-3,5
19,22,58,7,1,13,0,-7,5
17,9,1,0,-5,-17,-16,9,5
-3,-12,-31,-9,-8,-22,-8,20,5
-4,21,33,5,1,30,14,2,5
-6,-9,-24,-4,-4,-17,3,-2,5
32,4,12,4,-2,-5,-1,25,5
13,14,5,-3,2,14,4,6,5
7,3,7,-2,-3,-12,-9,-25,5
-38,-22,-53,-1,1,12,2,12,5
3,3,18,-1,-6,-21,-9,-1,5
6,18,33,10,3,5,9,11,5
-6,-23,-59,-12,-3,7,5,-13,5
23,25,59,5,0,8,5,-3,5
-13,-17,-30,-4,2,6,-9,-13,5
3,-9,-12,2,2,-17,-3,17,5
-12,11,39,5,-2,-6,-13,-27,5
20,24,29,2,3,8,7,23,5
1,-19,-30,-9,-1,25,17,-4,5
4,-10,-19,3,3,-5,-12,-9,5
-30,-5,8,0,1,6,8,-20,5
-7,2,-1,-3,-2,-20,-2,-11,5
14,18,31,9,7,33,23,6,5
11,13,10,4,4,-3,-10,2,5
-5,-10,-19,-1,-3,-17,-8,21,5
-5,-24,-40,-8,-7,-8,-11,-1,5
-4,4,12,-1,2,3,6,3,5
-33,5,23,-2,-6,-16,-13,-17,5
28,13,7,3,6,29,22,32,5
7,-6,-4,-1,-7,-38,-17,-22,5
-4,-4,-3,2,1,30,4,2,5
-6,4,4,-1,2,4,13,22,5
-5,-4,20,-2,-1,-5,2,9,5
3,-11,-22,-5,-1,8,-3,-11,5
5,14,10,2,-2,-25,-8,-20,5
2,-12,-12,-1,-4,5,5,16,5
4,11,26,-1,2,10,-5,-56,5
19,5,-15,2,2,3,0,15,5
-2,10,16,2,4,12,8,2,5
13,-2,8,0,-8,2,5,-10,5
-12,-36,-47,-20,-4,-43,-23,0,5
-34,-17,3,-9,-10,9,-3,-13,5
1,7,9,1,-1,-28,-6,9,5
14,15,20,2,2,27,12,-3,5
-7,4,-3,6,7,34,28,38,5
-11,9,24,2,3,-6,-12,-41,5
20,-8,-30,-8,-7,-18,2,37,5
-29,-1,12,-5,0,6,-1,-30,5
-17,-30,-56,1,-2,-18,-8,-33,5
14,3,2,-2,3,19,13,20,5
-16,-8,0,-1,-6,-7,-14,-6,5
13,0,1,-3,1,-34,-29,-9,5
-1,22,38,3,-3,5,6,34,5
-1,-12,-20,1,6,18,12,-24,5
-8,-7,-17,2,1,6,3,4,5
-19,0,-9,2,-3,11,4,-18,5
-14,11,29,4,-1,-19,-16,11,5
19,-6,-21,-6,-1,-3,-3,6,5
-6,-3,0,-5,-2,-1,2,-18,5
6,-16,-40,-7,-5,-5,-9,-22,5
-10,6,15,5,-1,-1,-2,43,5
7,5,3,3,2,-1,0,1,5
4,29,73,2,3,14,7,-16,5
-7,-44,-87,-10,-1,-13,-4,11,5
12,-10,-17,-2,-7,-8,-8,1,5
0,10,17,6,6,1,3,-2,5
-13,2,5,2,0,6,-2,8,5
10,6,21,-4,0,17,12,0,5
4,13,1,1,5,27,10,-20,5
-4,-10,-27,-3,-3,-26,-10,23,5
14,-4,7,0,-2,2,-1,-36,5
-6,1,-9,3,1,3,7,11,5
-8,2,6,-4,-5,-26,-2,-17,5
-3,-2,12,-3,-2,25,-5,0,5
8,-6,-32,-4,0,-28,1,7,5
3,-1,-18,-2,-6,-9,0,16,5
22,17,37,5,1,5,8,15,5
6,8,-7,5,-2,1,16,41,5
5,-13,-1,0,1,-4,-17,42,5
21,16,23,3,1,0,2,21,5
-1,5,27,0,2,18,11,8,5
-4,-5,-9,-7,-8,-21,-2,11,5
-14,-4,-31,-7,-10,-26,-5,22,5
17,-3,8,-2,2,-3,-15,31,5
23,2,4,2,15,42,1,3,5
19,32,56,6,-1,-3,-8,-15,5
-4,-32,-60,-4,6,17,22,12,5
-9,2,19,-3,-8,-17,-22,-47,5
30,17,11,3,0,3,8,-20,5
7,-6,7,2,0,-5,-9,-61,5
7,-24,-62,-11,-7,-15,-19,-4,5
1,0,5,0,3,27,14,-17,5
-11,-6,-10,0,-2,-19,5,25,5
-30,8,14,2,1,5,-4,-44,5
-23,8,36,0,-6,-10,-6,-38,5
-16,-15,-10,0,6,17,9,-15,5
8,11,-22,-9,-8,-28,-11,16,5
7,-8,-15,-6,-3,-4,8,42,5
2,19,30,6,5,20,3,7,5
-7,-4,-5,-2,0,-4,4,38,5
-24,-6,13,1,0,5,12,6,5
19,-18,-40,-6,2,13,6,22,5
-25,-7,-1,-1,-1,-9,-7,-18,5
28,34,54,10,0,-5,3,5,5
-3,2,-6,-2,-1,1,-1,10,5
16,3,-2,1,-6,-23,-25,0,5
9,-8,-25,0,-1,3,-3,12,5
1,5,23,-5,-4,-2,-10,-10,5
-2,-14,-20,-3,-1,3,-2,-16,5
-5,-14,-7,-6,-2,-15,-12,-12,5
1,26,56,10,4,29,24,17,5
-35,-22,-37,-9,-9,-47,-39,-34,5
1,-3,8,0,0,17,2,-13,5
4,24,35,6,4,11,19,-12,5
5,-1,20,1,0,5,3,1,5
4,12,1,-3,-3,-2,7,22,5
2,-4,-9,1,-2,-12,-15,-20,5
6,-9,-1,1,6,11,-1,63,5
42,11,18,4,-1,-1,10,-2,5
-11,-11,-14,-4,-2,-2,5,-3,5
5,-9,-50,-9,-8,-4,-7,-21,5
-12,6,26,6,6,9,14,18,5
6,-19,-64,-9,-4,-15,-4,-33,5
-10,-6,3,-1,-1,-4,-19,-46,5
12,21,34,7,-2,7,13,9,5
-28,-16,-6,-5,-3,7,6,-29,5
45,34,40,10,8,-7,-14,-48,5
-6,12,43,5,2,4,11,-23,5
-59,-40,-58,-10,-5,-4,-10,-16,5
-9,20,30,3,1,-6,0,13,5
0,-22,-32,-3,-3,-3,-3,72,5
10,1,0,1,-5,-7,-7,-14,5
21,6,31,2,2,10,-9,-3,5
-16,-18,-53,-10,-2,16,10,4,5
-19,19,54,5,1,-10,-2,-3,5
21,1,-22,-4,-8,-32,-21,58,5
-1,10,8,2,5,21,13,-22,5
11,20,51,4,-9,-24,-19,15,5
-21,-27,-59,-11,1,4,1,-1,5
-7,-12,-19,0,-1,3,10,-23,5
-31,-42,-58,-8,-2,-4,-2,21,5
-8,11,22,4,0,41,15,7,5
8,9,-4,-1,2,-7,-3,-22,5
55,5,8,-1,-2,-14,-6,8,5
-1,27,55,7,0,-7,9,-19,5
-27,-29,-41,-5,0,-11,-16,-1,5
-19,-11,2,-2,-4,23,13,74,5
17,7,3,1,7,8,9,26,5
29,10,17,5,-1,8,9,3,5
-14,-11,-22,-2,2,-1,4,-30,5
-15,-7,9,-3,-8,-6,-7,-74,5
-5,5,-6,1,1,17,12,7,5
-10,9,36,-2,0,-8,4,54,5
2,-24,-20,-3,2,-8,3,-3,5
0,31,27,7,-2,-16,-19,-10,5
-16,-27,-24,-6,-2,11,2,-16,5
0,-8,-8,-5,-2,5,3,8,5
8,2,-6,-5,-5,-8,2,28,5
9,-3,9,0,-1,-19,-17,-7,5
-4,22,49,10,2,15,9,2,5
-6,-20,-43,-12,-5,-12,-11,-5,5
4,1,-23,0,0,5,-7,-6,5
-22,-6,34,2,-2,-9,-5,-13,5
-15,-5,-16,1,3,15,21,19,5
