-82,-25,-15,-6,-1,9,-3,-61,4
21,12,0,-4,-9,-2,13,58,4
-25,-12,-5,1,9,-8,-27,-64,4
-41,-31,4,18,33,6,25,43,4
-23,-35,6,4,11,4,37,74,4
-25,-14,4,2,4,-10,-100,-118,4
-80,-57,-12,-33,-28,-10,22,11,4
-119,-66,-4,5,23,3,27,80,4
30,-45,4,7,23,0,-5,-62,4
-4,-18,1,22,24,8,27,39,4
3,-3,8,35,6,6,2,12,4
23,10,-4,-7,-20,-12,-32,-62,4
2,5,-10,-76,-64,-11,-3,4,4
29,8,3,-21,-63,-7,-6,-14,4
-37,2,-2,35,5,0,-8,-11,4
27,-53,5,40,40,13,21,-5,4
-50,-52,21,-37,-31,-3,-22,-24,4
8,5,-33,-37,-77,-12,8,-1,4
54,-7,-17,-29,-16,-1,-27,3,4
16,37,-7,28,29,-5,-15,49,4
-25,-6,-9,24,38,-9,48,45,4
-50,-31,17,12,33,11,31,12,4
17,8,12,-7,-5,-5,8,54,4
-13,-31,8,5,27,12,7,-20,4
2,-3,2,19,22,-2,-48,-56,4
3,20,0,-3,23,-4,19,80,4
12,17,-8,-7,18,4,2,21,4
12,6,5,2,3,-5,-12,47,4
-9,-16,11,73,72,12,21,8,4
2,20,-17,-47,-56,-9,-14,-27,4
8,7,7,-16,-18,0,0,12,4
-85,-23,-14,-70,-69,-10,-3,-22,4
-25,-28,-19,-26,-46,-5,-6,6,4
12,-42,7,25,44,22,29,3,4
64,32,-8,-6,-36,-11,-44,-33,4
-10,11,6,22,-22,6,41,-128,4
13,34,3,9,-26,4,7,-2,4
6,5,12,7,-25,-12,-49,-25,4
11,0,-10,-12,-14,4,-14,-51,4
91,3,-10,9,18,-9,-33,13,4
2,-3,-4,-6,2,4,-2,-45,4
81,35,7,13,36,-1,20,4,4
22,12,4,11,18,5,29,15,4
-32,-33,4,11,38,6,-1,-43,4
-21,-10,-2,15,45,-5,-27,-23,4
-28,-3,-7,-56,26,-5,19,25,4
-19,-31,21,71,76,4,12,7,4
29,34,-9,-99,8,-5,9,51,4
35,86,-30,-86,-74,-31,-19,21,4
-31,-26,6,51,34,21,-45,-128,4
-56,19,-24,-26,-24,-18,94,65,4
-10,-29,25,75,36,13,-17,3,4
31,6,26,62,27,5,14,30,4
-25,33,-19,-50,-49,-33,-73,-42,4
-21,-18,6,-14,21,15,-9,4,4
30,47,3,16,-12,-12,-37,-31,4
8,22,2,6,21,19,-26,11,4
66,50,-3,14,11,21,27,-3,4
-47,-54,5,-12,-71,-17,-7,10,4
-16,-41,-10,-1,-45,-6,9,-23,4
-32,-29,-6,-7,-11,1,27,69,4
-77,-71,2,12,26,-13,-5,-33,4
-44,-36,3,-4,67,-4,-21,0,4
3,-7,3,-2,61,3,20,59,4
-4,-16,7,50,24,-3,-19,-23,4
-31,-12,6,-24,33,3,19,-47,4
28,60,-35,-80,-90,-7,-22,-27,4
-47,-6,-13,-13,-22,-53,-31,-39,4
0,-36,-2,-7,55,-107,40,121,4
-34,-19,14,81,113,-121,-59,-46,4
15,-79,-19,-83,2,22,-13,-66,4
-45,-16,22,51,55,107,112,71,4
48,39,16,37,-37,127,42,-121,4
95,103,11,31,-128,83,115,86,4
-40,8,15,16,117,-108,2,-3,4
88,56,0,-18,7,-128,-79,-6,4
39,28,-17,-37,74,-116,-69,-34,4
-100,-54,-18,-51,7,-60,-47,-10,4
-37,-28,6,39,-64,6,-27,-11,4
-37,-40,-3,-4,-35,13,11,-52,4
-24,-44,14,86,50,15,-6,-1,4
10,-9,-5,15,19,23,21,102,4
12,10,-4,-2,-53,16,-27,-50,4
-29,-12,-39,-120,-9,14,-5,46,4
6,-2,-6,-37,-62,11,1,26,4
-25,-62,12,40,49,10,-13,19,4
30,-25,26,42,12,2,6,102,4
4,-26,10,64,-5,11,25,2,4
-2,-29,-2,-19,9,-2,-29,53,4
-36,-30,-3,-8,16,8,28,-25,4
59,1,0,12,16,-7,2,74,4
-1,-2,4,-10,-18,20,11,-36,4
-9,17,2,-8,-10,-10,-5,-32,4
-47,-55,-1,-7,-8,7,5,-17,4
78,35,-7,-3,12,-13,-36,-7,4
87,43,-5,11,-19,-6,-31,-8,4
-41,-41,-4,-18,-28,9,46,-26,4
-3,-33,12,59,61,-4,-8,-28,4
-76,-17,-7,-65,26,7,25,-17,4
35,-23,8,17,-75,-1,13,8,4
18,-20,11,76,-25,10,3,77,4
20,-9,30,94,43,4,-33,-61,4
-68,-15,-46,-71,9,-14,34,67,4
9,44,-26,-87,-8,-23,-18,13,4
37,31,-12,-54,-10,-3,11,26,4
-20,-8,-10,7,38,10,5,34,4
94,13,27,80,13,16,4,-32,4
-78,-56,7,19,20,-1,9,-2,4
-86,-60,1,-9,-10,-7,-6,-25,4
10,8,-4,-44,30,-5,-35,37,4
-4,-5,11,5,49,0,48,-33,4
-128,-40,6,17,-36,35,-91,-110,4
-37,34,-6,-15,-16,-8,80,91,4
71,58,-15,-41,-34,-15,-97,-77,4
-37,-3,-10,0,70,-10,83,86,4
64,13,17,51,52,-4,0,1,4
-9,-24,2,-2,7,-10,-24,-26,4
28,20,-3,-68,-30,6,19,44,4
-36,-17,4,23,8,32,20,-101,4
9,-10,22,97,16,-7,-26,34,4
-2,12,-20,-103,-7,-4,-4,-23,4
65,76,-23,-60,28,-13,23,40,4
-47,12,-10,-35,20,5,-48,-23,4
-67,-9,-1,2,-49,-6,35,12,4
-38,-49,15,50,-28,14,-18,-60,4
-92,-79,3,21,44,-9,1,32,4
-27,-41,8,14,33,-4,-25,12,4
75,19,-5,-7,-6,-1,15,21,4
-13,36,-4,4,-16,-4,-3,-53,4
-18,4,-2,-14,36,2,4,-63,4
-25,-16,13,19,27,-3,-6,9,4
10,-14,-2,-23,-11,-9,-2,50,4
11,-16,4,2,-49,0,-7,59,4
12,3,0,43,-17,2,37,-9,4
26,-23,38,114,-53,16,-32,-35,4
-4,76,-51,-109,-16,-36,-20,-28,4
12,13,-12,33,44,-8,-18,-11,4
-11,-32,-9,-11,32,4,9,9,4
64,38,-6,27,22,7,17,66,4
-62,-46,13,38,4,-1,16,-69,4
-38,10,-13,-57,15,-31,18,40,4
54,39,6,0,-17,-9,-12,84,4
-23,20,-4,-27,-13,-2,-38,-37,4
-29,-19,2,10,13,0,7,44,4
10,37,-3,-7,-33,3,-29,-124,4
-3,-6,4,12,-23,-17,36,11,4
3,34,-12,-26,-4,-14,-1,10,4
9,-15,4,2,-58,-15,49,72,4
27,-26,44,127,-41,29,-29,-68,4
-73,19,-44,-111,-5,-3,3,-11,4
-43,-2,-18,25,50,-6,-20,-22,4
19,-16,2,24,22,16,19,22,4
39,-58,42,122,-19,24,-13,-13,4
-24,15,-27,-69,-9,-5,-14,-19,4
28,15,-19,-74,-26,-7,2,-10,4
5,-5,2,23,-3,10,-24,-48,4
-42,6,-11,-6,-5,-14,54,105,4
-8,-63,17,37,5,28,-33,-35,4
-5,-67,-3,-30,17,-4,22,32,4
-29,-32,5,5,-29,-5,-2,-21,4
46,17,-13,-43,64,-38,-99,-75,4
10,-24,10,18,44,18,82,-62,4
-66,-70,-1,-7,-55,-30,76,81,4
107,0,5,8,-10,27,-23,-57,4
47,41,-12,-45,53,23,18,34,4
-86,-42,6,29,21,4,-40,-3,4
63,-53,20,73,-58,42,-3,-18,4
-74,-9,-4,-47,-34,0,9,21,4
-13,7,-27,-84,11,-15,-19,-68,4
24,-20,-2,6,51,-14,-23,75,4
-2,-15,8,34,-11,9,7,-29,4
-33,-33,-2,-4,-6,-23,-5,61,4
-11,1,-10,-46,48,-7,-22,8,4
23,37,2,-8,7,-10,54,127,4
8,-23,10,13,-32,19,-17,-69,4
-28,51,-5,4,-13,-35,-15,-32,4
-50,-55,12,24,25,11,6,-28,4
97,20,22,83,20,6,-1,-8,4
-5,11,-3,2,-37,-4,-31,-23,4
19,31,0,-23,-68,2,-4,-20,4
-10,35,-20,-103,-13,19,66,58,4
94,50,4,37,7,5,-19,-33,4
-53,-27,-10,12,-6,-6,-4,36,4
85,-17,8,36,-3,5,-21,9,4
30,-14,4,35,26,-2,25,92,4
-57,-17,1,-11,34,-9,-11,-79,4
22,41,14,0,15,2,5,5,4
-86,-57,-6,-9,-22,10,-22,-38,4
32,2,-10,4,12,-8,10,14,4
-35,-26,-8,-11,38,-16,14,56,4
-4,-17,4,13,27,-9,-22,27,4
-23,8,0,-17,-30,8,34,8,4
12,10,6,10,-1,7,-27,-85,4
-19,-20,4,-8,20,23,-9,28,4
26,97,-24,-23,-9,-36,6,33,4
103,36,6,30,10,5,62,85,4
-8,-2,10,66,42,4,-19,25,4
113,39,-8,-74,4,-13,6,-9,4
-14,-9,-4,-66,-35,0,-69,-58,4
20,41,-10,-2,-26,-2,-6,-39,4
81,40,-4,16,9,4,32,5,4
-56,-62,14,72,36,17,-2,-54,4
-27,-1,-14,-66,11,-7,-4,-37,4
-63,-31,-16,-37,62,-8,9,27,4
-67,-34,-4,-9,-6,8,33,-30,4
-125,-94,-3,18,-46,8,-30,42,4
12,-13,5,32,-68,4,67,111,4
-6,27,2,10,-12,-13,-66,-24,4
-39,-8,-2,-17,44,-14,-28,-20,4
10,2,6,10,-11,0,39,-9,4
-64,-34,0,11,-53,4,-11,-66,4
1,-11,3,-6,-10,14,14,61,4
43,0,2,9,39,-8,10,-22,4
52,41,10,60,-7,7,-10,-14,4
-3,-37,15,38,-24,4,-26,3,4
64,54,-37,-78,-19,-15,-6,-34,4
-71,-20,-8,11,32,6,23,66,4
-18,38,-9,2,18,-9,39,10,4
58,30,0,19,24,11,-16,-71,4
18,-20,19,61,-6,-5,-11,64,4
-56,-23,4,-11,33,-1,-23,-30,4
0,25,-12,-48,12,2,29,56,4
-66,-10,-2,18,29,-12,-56,-104,4
-7,-5,6,-3,-38,8,33,10,4
27,14,-2,-9,-22,-10,-23,21,4
-2,12,4,17,59,-4,11,68,4
87,46,-3,-34,5,5,20,70,4
-22,-2,11,29,13,-6,58,25,4
69,19,-4,-8,-48,-2,-22,-61,4
23,-4,-1,-30,-66,6,-23,-36,4
-8,-2,-9,-38,74,0,33,50,4
-21,10,-8,-39,0,-3,-36,-78,4
35,6,18,84,-54,7,24,34,4
-31,-1,-7,-50,16,-3,-43,-35,4
17,9,-2,18,-18,-7,19,-15,4
-34,-41,2,27,-8,4,-13,12,4
-23,-28,1,5,25,8,24,-4,4
36,13,0,14,-13,-11,-27,-27,4
-45,-55,6,12,-27,18,124,123,4
-12,9,0,14,49,-29,-105,-112,4
15,10,-6,-21,-28,-17,-11,-22,4
-77,-29,-10,-4,20,0,14,31,4
50,-13,5,3,-4,-1,-1,-1,4
80,6,10,19,-52,17,34,21,4
-27,-3,-5,-24,27,-1,-25,-15,4
-75,-45,-8,-8,-7,5,-11,-42,4
-21,16,0,21,-55,-9,-9,-13,4
-58,-26,-5,-28,-27,12,-20,-53,4
-19,-25,2,63,-12,6,61,35,4
-3,-17,-12,-46,-75,-24,-57,28,4
9,31,-11,-88,-45,7,-22,-19,4
-32,-10,0,-6,-7,12,25,71,4
-19,-6,-5,-15,-26,-26,94,105,4
-44,-49,12,56,16,5,33,-33,4
22,4,6,32,-23,-9,-34,-22,4
-64,-62,5,9,17,19,-3,-13,4
-23,39,6,-7,-8,12,-17,-47,4
69,11,4,15,-56,-7,0,48,4
-4,-14,-5,-8,22,8,-36,-66,4
-78,8,-6,4,39,-12,35,-42,4
-41,-50,-9,-17,11,-15,-85,-17,4
-47,-24,-3,-21,34,-8,13,11,4
-36,0,2,2,-46,-4,15,18,4
107,8,10,41,-26,13,-5,1,4
-2,21,-9,-23,55,2,37,51,4
-15,35,-12,-15,-9,-22,-33,-62,4
-20,-9,20,51,62,3,9,-15,4
-28,27,-15,-13,-41,-10,53,41,4
24,17,-6,-99,-55,12,-51,-18,4
38,12,-4,-1,41,9,-38,-12,4
-87,-32,0,35,25,12,13,21,4
-11,50,12,8,-11,0,-13,-16,4
-82,-65,1,24,-48,15,-9,-32,4
-17,39,1,6,-16,0,5,-48,4
-25,11,-7,-18,25,-13,-31,-2,4
-18,-13,2,9,5,8,12,25,4
53,-6,-5,0,-30,-11,-18,1,4
16,1,0,7,14,-5,-30,-30,4
-66,-10,-13,-11,19,-4,-23,-93,4
20,-45,-2,-11,-58,4,0,64,4
-44,19,-4,33,-13,-28,9,-73,4
13,-3,8,-17,-20,8,35,43,4
38,2,6,56,-24,-3,-70,-34,4
-41,-27,-4,-32,3,-11,-25,-9,4
49,29,-5,-46,14,3,-45,12,4
27,12,8,19,5,19,-6,-86,4
3,-10,-10,-10,-9,-5,110,114,4
-28,-30,23,82,-56,-9,60,-54,4
51,26,-12,-75,-7,5,-81,-45,4
32,37,-14,-23,80,-2,56,-20,4
95,35,2,-2,2,-5,-54,41,4
-3,1,-2,-3,39,1,3,-6,4
-23,3,10,38,15,0,34,65,4
16,2,6,9,2,-5,-28,-49,4
-6,26,-8,-20,-12,8,17,16,4
34,40,-5,-13,25,3,10,7,4
45,-1,4,19,-29,12,1,-3,4
-18,-34,-4,4,19,-11,-62,11,4
-38,-1,-10,1,-2,-13,94,104,4
8,-7,1,-32,-1,-3,-15,16,4
-25,-11,8,23,52,8,39,74,4
-34,-11,8,27,-92,-15,-2,-59,4
-17,-22,8,54,9,8,3,-10,4
21,12,-8,-70,70,-11,-50,-6,4
15,-25,1,-1,0,3,1,-70,4
-27,15,-2,10,15,12,48,50,4
-20,-18,1,-9,13,-30,-90,3,4
3,-33,-5,-4,-17,10,2,-47,4
-32,-58,24,93,-9,6,-5,30,4
-43,6,-29,-109,11,-26,-28,26,4
38,-57,0,-39,-58,22,35,2,4
-77,6,-1,26,-33,-9,-51,-50,4
-29,1,-7,-3,-16,-15,-32,-56,4
-80,-29,5,35,-9,16,28,51,4
-26,-23,4,-17,67,17,-10,-37,4
59,86,-3,5,-46,-14,-11,-15,4
36,45,3,-11,-38,9,60,65,4
56,56,10,16,44,7,6,-24,4
9,27,-8,-17,19,6,-2,5,4
-54,-58,-5,5,-27,-13,-16,-46,4
-23,-23,-2,6,-33,8,5,4,4
20,-28,-5,2,3,-4,43,59,4
-10,37,-12,-12,-3,-35,-40,-62,4
-17,-11,3,1,-38,7,37,37,4
-2,-1,17,57,19,4,-24,27,4
-1,-21,-11,-84,-34,1,-2,84,4
-13,16,-5,-27,-5,-7,0,-90,4
10,3,2,19,-50,-10,-10,40,4
-11,0,3,7,-10,0,12,-15,4
42,17,5,20,74,24,26,-29,4
-46,-15,-5,-13,20,-16,-30,9,4
-70,-28,-3,-13,-46,10,5,-23,4
36,9,-5,-13,5,-10,-74,-91,4
-50,19,0,28,-40,-23,47,68,4
34,15,3,-2,58,13,6,-20,4
20,-19,-1,6,6,5,-22,-39,4
-42,-36,1,-8,-55,-1,24,16,4
-9,-3,7,18,6,-1,-8,-26,4
12,3,3,-26,1,24,-14,-75,4
-2,40,-11,6,29,-39,42,124,4
26,21,-5,21,64,-5,-25,-13,4
20,-29,6,9,-59,3,-46,-33,4
6,40,-13,-66,-56,5,42,8,4
27,12,-2,-18,74,20,-54,-89,4
-33,27,-17,-16,-32,-22,28,-5,4
1,-10,9,40,-2,3,17,2,4
-18,-25,11,38,6,5,-19,-3,4
90,20,0,9,-42,10,11,-3,4
-38,-7,9,42,34,4,16,45,4
127,17,-19,-75,44,1,-40,-27,4
2,-7,0,10,-64,-2,31,-30,4
-31,9,-12,-14,31,-19,42,103,4
30,15,7,-1,-1,10,23,-39,4
-84,-11,9,39,-5,2,-24,-37,4
-4,8,-3,-19,-55,-7,-22,-41,4
-1,6,1,5,-6,-6,11,-5,4
-17,0,-1,-25,18,1,-19,-72,4
-26,-5,2,7,1,-3,1,-11,4
25,-2,-4,31,39,-4,3,31,4
-28,-16,2,-15,4,10,31,3,4
-10,-23,-4,2,-12,-1,-79,-70,4
8,5,-7,-24,55,-9,75,102,4
-49,-18,5,37,-7,-4,4,71,4
-23,-5,-3,-6,-28,-3,-16,-41,4
-43,-37,-2,-9,-52,6,14,19,4
46,16,6,-4,34,8,3,-20,4
-18,-15,-3,4,5,0,-37,54,4
-25,10,-13,-10,57,-12,-58,46,4
-2,3,-15,-35,-42,-11,86,57,4
-22,3,12,39,-63,-1,12,49,4
109,60,2,7,79,6,13,-34,4
56,-1,3,9,-25,16,-59,-51,4
-11,-41,14,59,28,19,13,0,4
5,-10,-7,-47,16,-6,7,-47,4
-21,16,-12,-75,-23,-16,-23,-38,4
1,-26,0,6,-23,3,16,16,4
80,38,0,-36,43,-6,-15,33,4
74,16,5,53,-3,5,1,-10,4
-8,2,3,3,-43,-5,-5,20,4
-4,-29,12,0,-5,-4,15,-41,4
-18,-15,-21,-7,17,-3,23,36,4
-41,-25,-4,13,-63,-4,-41,-44,4
38,-2,1,13,-25,4,29,32,4
-45,-20,7,14,50,6,2,27,4
-2,-2,5,-7,4,-8,-59,-7,4
-56,-45,-1,-13,-51,-1,15,-2,4
-26,-44,1,7,-10,3,-61,-75,4
52,14,-8,4,-50,-9,62,66,4
22,25,2,-21,26,-4,37,63,4
-66,-34,-8,3,10,-10,-42,-95,4
-21,-28,11,45,-69,2,-2,0,4
-16,-4,2,-12,14,12,60,67,4
-19,-19,-3,-24,42,9,-48,-63,4
-7,4,-8,-2,-13,-13,-6,49,4
-97,-49,-11,13,6,-12,-8,-36,4
-68,-39,5,3,3,-5,-36,-36,4
21,9,1,-10,-73,1,30,84,4
-6,-13,4,21,2,12,7,9,4
11,-4,-1,-23,7,7,-17,-70,4
-82,-2,-17,-10,5,-28,25,58,4
5,11,-6,-12,6,2,59,46,4
89,35,6,7,-36,-1,-72,-34,4
-14,23,1,-1,64,-11,55,119,4
47,21,3,15,-21,-5,6,-54,4
-20,3,-6,-10,24,-17,-36,6,4
-11,-6,8,35,-26,7,27,25,4
35,12,5,11,3,9,-12,-6,4
0,0,-1,-40,27,8,-23,-31,4
5,32,-21,-79,-29,-15,0,-23,4
-15,-1,0,8,72,-4,-10,-1,4
4,15,1,1,-21,-4,-3,45,4
5,-10,13,64,-1,11,10,-9,4
-65,-56,0,5,37,-3,-26,-108,4
55,15,-1,-8,46,2,-30,-29,4
7,30,8,13,-26,-35,-9,43,4
-14,32,-7,0,-17,-7,78,68,4
-33,-21,1,8,-6,13,-12,-53,4
-63,-24,3,-12,19,28,9,-93,4
-9,24,-5,0,3,13,34,82,4
50,-5,1,-5,-63,19,-74,-43,4
34,20,6,7,-54,11,25,65,4
7,1,-4,-14,29,-1,74,113,4
-3,4,-3,-9,-11,3,-35,1,4
2,-10,-2,4,66,-13,-31,-9,4
4,-20,5,15,26,-4,-27,-42,4
-42,-52,0,29,-49,4,6,33,4
70,38,-4,-28,-6,1,26,-8,4
35,35,2,8,-45,5,-1,-15,4
19,51,-8,-20,46,-3,-7,36,4
38,25,-3,-15,42,-1,8,4,4
-51,-18,-6,3,4,-2,-38,-105,4
17,12,5,8,45,3,0,-65,4
-1,15,2,20,-65,-14,30,36,4
2,8,0,-10,-53,-22,10,89,4
5,23,-1,2,3,-2,28,27,4
0,-27,5,-1,8,28,-48,-68,4
-44,-25,-7,14,-9,-24,38,106,4
-39,4,-2,-7,-54,1,1,9,4
22,3,5,2,-22,15,-7,51,4
-22,-2,-9,-27,38,7,5,-25,4
15,0,20,76,-24,27,12,-29,4
32,44,-24,-96,2,-12,-31,-14,4
-15,8,-1,20,-58,-9,16,-21,4
-67,-49,-3,-2,32,3,-2,1,4
16,-8,2,9,-45,0,-25,-18,4
-23,-5,3,28,-36,12,38,-27,4
-66,-31,-3,-1,-5,15,19,12,4
-44,-9,-13,-28,-74,-24,-49,28,4
0,26,3,1,61,0,-31,-102,4
-76,-58,4,10,28,5,2,80,4
-67,0,-10,-25,41,-13,-9,32,4
15,-5,4,20,7,-9,54,-9,4
-26,9,-5,-14,-58,-6,8,14,4
10,16,0,4,-43,-6,-31,-15,4
28,-6,4,42,5,3,-8,-29,4
-17,11,1,-19,-12,-5,-13,24,4
4,4,5,-5,60,7,-37,-50,4
56,12,-3,-18,49,0,46,36,4
-15,-7,2,-15,-31,-3,-1,-49,4
93,27,1,22,-16,4,12,-8,4
-31,-9,-6,-20,-23,0,20,15,4
77,53,3,11,63,1,-25,5,4
-17,-54,3,20,65,0,-29,-37,4
-42,9,-8,-31,-43,-3,0,46,4
3,-6,-5,-14,-8,4,17,13,4
-31,-17,1,14,-65,-11,-16,-105,4
26,-11,-1,-6,26,-4,8,48,4
10,-3,-1,7,34,-9,-8,-23,4
7,-16,5,10,-35,25,-7,8,4
-10,4,1,5,40,-10,-7,18,4
-32,-8,-9,-10,-6,-14,24,-83,4
-27,-19,0,8,40,0,7,38,4
6,-15,1,-8,-32,-3,2,28,4
6,-16,2,0,40,8,-16,-11,4
-20,-40,3,10,24,11,0,31,4
-19,-19,-1,12,-13,-2,26,12,4
27,6,-5,-14,8,-13,-40,-71,4
-24,6,-6,-10,-81,-6,-13,6,4
5,5,4,18,42,3,28,10,4
-83,-35,-1,19,-8,-3,-21,-40,4
3,-9,-5,-61,-25,-5,15,36,4
-23,0,4,15,22,0,-14,-49,4
7,-4,1,-25,-32,3,-5,-41,4
46,25,7,18,-21,6,71,126,4
-8,6,-4,14,-27,-9,8,-47,4
-10,-4,-3,-10,45,1,-8,-23,4
-1,-5,5,10,4,6,-20,15,4
36,8,5,-8,-35,1,-14,16,4
16,25,-7,3,29,-8,0,33,4
-70,-20,-9,-8,-16,-8,-16,-13,4
-5,-12,-1,0,10,-4,6,5,4
-12,-5,6,4,-39,3,-12,1,4
-31,-9,-10,-4,12,-11,-53,-97,4
-10,3,1,-4,-49,-3,56,13,4
24,21,-3,-6,-29,-6,-16,63,4
11,15,-3,-3,43,-10,-47,-62,4
-33,-26,4,7,-35,4,41,17,4
11,-19,-2,12,25,4,0,-27,4
9,12,-4,-21,-14,-2,-9,-17,4
6,-10,-2,-6,-31,-2,-2,-18,4
-2,-7,3,18,-23,6,-9,47,4
26,3,-6,-6,44,0,-36,-16,4
28,26,-1,-6,-84,2,83,94,4
-75,2,-7,-5,77,1,-38,-65,4
35,9,1,-1,-19,6,17,16,4
5,-7,7,11,-64,-9,1,38,4
43,39,-3,-12,39,2,-11,14,4
29,18,-6,-16,-11,-10,19,-21,4
-44,-4,-7,-4,12,-6,1,-43,4
-3,11,-5,-7,-14,-4,-7,20,4
2,-22,4,19,23,1,-28,-32,4
-1,5,0,-2,-61,0,6,-1,4
19,16,2,-2,57,-3,0,1,4
6,-3,3,-7,31,3,7,1,4
-21,-3,-4,-7,-38,0,-31,-128,4
17,12,0,-5,41,3,19,55,4
-6,-18,0,22,-45,-6,9,93,4
-13,-2,0,0,41,2,12,-38,4
-8,2,-2,7,-44,-1,10,36,4
54,6,-2,-6,30,5,-9,0,4
-4,-12,0,-9,-13,7,14,26,4
20,22,2,4,27,-2,-18,29,4
-54,-7,9,24,-9,-5,-87,-100,4
48,33,-12,-6,-41,-29,24,79,4
-13,24,-3,7,-18,-44,4,28,4
5,0,-12,-3,20,-22,12,-23,4
41,-6,-9,-34,-31,-8,5,58,4
-6,12,2,-4,36,35,0,15,4
-19,-14,5,-2,25,32,-46,-96,4
28,13,-4,-8,8,6,41,98,4
8,3,6,24,6,16,-11,-36,4
-12,-40,-2,-5,-75,11,19,33,4
28,0,2,-5,26,8,12,13,4
-10,-20,2,15,-71,13,-11,-16,4
1,-23,-4,-9,75,7,-13,21,4
11,2,-2,-2,-62,-4,29,3,4
-43,-22,1,4,38,-4,5,29,4
-48,-35,4,13,-31,2,-24,-3,4
-39,-30,-5,-19,-24,-11,51,16,4
-7,-11,3,2,-60,-5,-71,-54,4
-1,1,2,1,36,0,3,31,4
-14,-10,-1,4,-66,1,9,17,4
-2,-21,2,-1,45,0,14,8,4
-17,-12,3,-1,-10,-4,-19,-35,4
15,-23,-6,-18,12,-2,28,16,4
-13,-29,-2,-9,-46,-2,30,-2,4
3,1,-2,6,37,-7,-61,-28,4
1,-1,2,7,-19,-5,-6,4,4
3,1,-1,2,29,-1,2,-36,4
3,2,0,-3,-29,3,6,14,4
0,21,-2,15,1,3,24,-16,4
-8,-20,1,-7,-18,1,-11,30,4
-36,-2,-2,-2,14,-2,18,22,4
14,-4,4,2,-25,0,3,9,4
4,-15,1,-2,-2,2,-12,-33,4
65,36,4,6,-11,-4,-1,35,4
5,10,-4,-3,4,-9,17,70,4
4,-6,3,5,-25,2,-9,-16,4
-87,-50,-5,-18,8,-11,2,-62,4
-10,-11,5,8,-5,-6,9,-49,4
6,13,5,-4,-14,-14,-23,-6,4
-1,21,-19,-35,-3,-17,-7,-16,4
2,-4,-3,-3,-16,6,-2,25,4
-13,6,1,11,42,8,38,34,4
3,6,-1,2,-7,-7,-52,-19,4
6,10,11,15,53,-1,-24,-74,4
32,19,-6,-6,-44,-2,11,59,4
-59,-30,-6,-1,54,-1,-10,-21,4
19,29,-2,-2,-30,10,7,-1,4
5,13,7,12,49,6,12,47,4
14,8,-2,-7,2,4,-26,15,4
-5,6,-2,-9,8,6,4,19,4
44,8,3,4,25,-1,-13,-31,4
23,29,-1,-1,18,-1,-12,-31,4
11,16,2,8,-44,0,23,54,4
-13,-30,5,17,10,-4,15,55,4
-15,5,-6,-2,-54,17,20,-24,4
19,11,-10,-15,54,-17,-33,-54,4
30,23,2,-5,-6,-3,-12,47,4
5,16,-8,-21,14,-4,7,-28,4
-30,-33,1,3,15,7,-12,-17,4
-50,-6,5,8,16,11,51,63,4
-18,-1,-1,1,17,-3,37,31,4
9,-1,-6,-19,71,-7,-33,-99,4
-1,-6,-5,2,3,8,11,16,4
-2,-8,-1,-3,-38,-6,-34,25,4
15,0,3,0,-2,-1,2,9,4
-4,15,3,14,17,4,14,23,4
-1,-19,0,1,-13,-9,12,50,4
37,-3,0,-8,-1,0,-25,-77,4
-12,-8,-3,5,-1,-3,21,-7,4
59,18,4,7,-9,-1,-45,-20,4
40,14,-1,1,2,-5,60,93,4
-20,3,-4,-17,-9,-1,4,77,4
2,5,2,-4,45,-4,20,-78,4
-49,-33,-6,5,-22,0,10,-11,4
10,-22,2,3,8,-2,-1,48,4
-13,-11,3,10,24,-3,-38,-42,4
16,11,-1,-1,3,0,13,30,4
-39,-1,-5,-4,7,3,1,34,4
-21,-20,-2,21,-8,1,-21,-17,4
3,-2,-3,-30,5,11,44,21,4
-33,-13,1,7,-44,-5,-65,-33,4
68,21,2,0,-21,-1,31,60,4
-15,-19,0,5,-5,-5,-32,-97,4
-4,-2,-4,-3,7,4,4,-6,4
-16,-9,0,-3,9,-2,-7,-31,4
-11,-19,1,-2,4,-1,5,-22,4
-2,0,6,19,6,4,-1,-6,4
2,-8,0,2,4,-6,-12,-7,4
-2,-3,-3,-14,-8,-2,27,41,4
-40,-29,-4,6,1,-1,9,13,4
-10,-16,-4,-10,10,-5,-19,20,4
-39,-42,-2,18,21,-4,-6,-69,4
13,-15,1,11,15,3,8,14,4
2,-7,0,-21,-5,-2,-6,30,4
19,22,7,-5,6,5,18,-33,4
11,1,3,7,-2,0,-22,-35,4
5,-7,0,-1,5,-1,3,30,4
6,-12,2,-2,19,0,-6,-21,4
-13,-15,0,-5,3,-5,5,-10,4
-63,-46,-3,-2,-16,0,1,15,4
26,-8,-5,5,-20,0,27,28,4
-10,-4,-1,5,-19,-3,-15,-68,4
-44,-24,4,5,-42,-6,-17,2,4
77,47,-7,-29,-33,0,7,-42,4
16,-2,-5,17,-21,-2,-31,46,4
8,-9,-1,-17,-24,8,23,59,4
-50,0,-12,-17,21,-18,-34,-89,4
-10,-5,6,10,40,1,-6,-17,4
-12,-1,2,8,50,4,49,-1,4
12,21,-3,-2,28,-8,-51,8,4
22,11,2,-2,31,1,-14,7,4
-15,-1,1,10,17,1,27,50,4
5,11,-3,-9,19,-3,-11,-26,4
-17,-18,5,8,22,-4,-7,-56,4
31,29,-4,-6,-8,15,34,70,4
-10,-10,-3,4,5,-4,-7,34,4
-17,-3,-4,-7,8,-3,14,6,4
47,28,2,3,-15,-5,-6,-25,4
18,11,3,-8,-28,0,-2,30,4
12,4,0,2,-11,1,-6,-50,4
-4,-8,-1,-1,1,3,-19,-2,4
4,4,-4,-5,10,-5,-14,8,4
11,-18,0,10,24,6,34,-19,4
-17,38,-2,-9,25,-12,-13,-16,4
-3,-13,3,3,15,-3,-5,35,4
-15,-10,0,4,18,3,-4,-11,4
4,-7,-8,-15,-1,-3,-6,14,4
3,-15,-3,0,7,0,0,11,4
3,17,0,-5,0,-5,-9,-27,4
-27,9,-6,8,2,3,10,-17,4
18,-8,6,12,13,-1,-16,7,4
13,13,1,2,-3,1,41,46,4
-19,-8,-6,-7,-5,-6,-19,21,4
-8,-8,1,4,2,4,-7,10,4
17,10,2,-5,10,-1,22,0,4
-26,-28,-6,1,-19,2,-34,-58,4
-5,1,2,-2,3,-1,-10,19,4
-9,-5,-2,-2,1,0,14,15,4
-24,-28,-1,0,-5,2,-10,-8,4
12,-4,5,4,3,2,21,18,4
13,-2,1,-2,-1,0,1,-36,4
-5,-30,-3,-1,-2,-6,-14,-15,4
1,-2,-2,-3,-1,-1,1,6,4
-3,-14,0,11,17,2,4,-32,4
-1,0,-4,-29,-10,0,-25,-31,4
0,9,2,4,5,4,-7,-58,4
-11,8,-5,-30,-2,-8,62,94,4
-36,-3,-2,4,-2,3,-12,-14,4
10,-9,2,15,14,5,43,38,4
46,14,-1,-6,14,-10,-30,-86,4
6,-15,2,12,-14,5,-23,16,4
-12,1,3,4,-6,-3,-6,-37,4
5,2,-2,-4,34,-2,7,11,4
29,8,-2,7,37,1,9,31,4
2,-4,-2,9,18,1,12,-21,4
26,4,-4,-12,-12,-2,-34,60,4
19,-9,3,-2,-33,5,16,52,4
-28,-18,-1,-12,-17,-10,-26,29,4
-2,17,6,18,-15,-2,-32,-70,4
2,-12,-1,-3,-3,5,32,52,4
-18,-13,-2,-8,9,0,7,6,4
-12,-43,-13,-13,-17,1,18,29,4
-7,-8,5,-4,-6,4,-23,-77,4
-15,4,-3,10,-6,-18,-14,-38,4
33,5,-2,-8,7,-2,16,74,4
12,-14,-1,-4,-11,-6,-5,-7,4
-79,-20,-7,-11,-2,3,-17,-36,4
100,32,3,3,7,10,30,25,4
-13,4,4,9,11,-5,-22,-50,4
-6,19,3,5,2,3,15,14,4
13,-11,-4,-3,5,-2,14,34,4
-28,-24,0,2,12,-1,-13,30,4
-21,-12,-3,8,26,0,5,-30,4
0,5,1,-5,-1,2,9,13,4
4,-2,0,8,-3,-4,-7,-9,4
-10,-10,-1,-18,-17,2,15,67,4
6,-7,-6,-5,-21,-4,-29,-70,4
-21,14,1,3,-5,4,19,40,4
-31,18,-6,-5,0,-4,-17,-33,4
-7,-19,4,26,14,4,7,-21,4
11,-3,0,-19,-9,15,-44,-39,4
-7,12,-4,-3,-14,-16,47,51,4
27,5,-3,-9,-1,-3,-7,-1,4
4,0,0,0,6,-4,-4,-5,4
-59,-31,1,8,-4,-4,-5,-58,4
-6,0,-1,7,2,5,-2,19,4
-30,15,-3,-12,-1,1,-5,8,4
-115,-44,1,2,-5,-10,4,-4,4
45,13,0,0,-3,-2,9,8,4
7,13,5,4,-12,-2,-12,-29,4
5,17,-3,-1,-3,-3,10,20,4
53,30,0,5,36,1,-23,-30,4
-13,21,0,-4,12,-7,8,10,4
-9,-5,4,17,19,3,1,9,4
26,0,-5,-17,-19,-3,-25,30,4
-4,29,-2,-10,-13,1,27,-10,4
4,6,-5,-4,-11,5,-31,-28,4
19,2,0,7,1,2,43,78,4
-15,8,2,6,10,-9,-27,-71,4
13,0,-2,-7,5,0,39,35,4
-2,10,3,18,7,0,25,23,4
-21,-18,1,-3,28,10,11,0,4
15,-17,0,2,-17,-2,-19,15,4
-10,-13,-7,-8,-10,3,-29,74,4
-40,12,-2,1,-20,1,1,-6,4
-20,-50,-1,5,-9,2,-1,-23,4
14,-8,-1,-11,18,2,36,22,4
0,-10,1,23,10,-5,-15,-34,4
73,38,-1,-10,9,-3,5,3,4
9,-27,-2,0,8,-1,-6,-15,4
-16,-11,-7,-9,15,-10,-17,-38,4
-2,-9,-2,-7,-4,-3,-4,6,4
-13,-26,3,22,12,5,24,35,4
-9,4,-5,-14,-20,-5,-31,-13,4
31,6,5,13,-24,2,28,40,4
4,-1,-2,-1,-33,-2,1,-14,4
-14,-28,-1,3,-7,-5,-12,-15,4
13,5,5,-3,13,0,-31,-28,4
-13,-15,3,5,43,12,75,48,4
10,-3,-7,-9,46,-15,-27,27,4
-8,-5,0,5,20,10,11,36,4
-33,8,1,20,22,-7,-18,-58,4
42,33,-2,-16,-7,-1,-13,31,4
-7,-9,0,-3,-15,-2,5,13,4
12,7,-1,-6,-7,-4,-10,7,4
-28,19,-2,-1,-4,5,5,17,4
1,-11,5,4,-4,0,-4,-2,4
71,35,-1,4,-6,0,5,3,4
-10,-11,-8,-27,-7,-7,-11,3,4
-13,9,-5,-9,-11,-6,9,-8,4
-59,-32,3,12,2,3,-2,-52,4
-22,-13,-3,-12,3,3,15,-35,4
-85,-67,3,14,11,-10,19,6,4
28,33,-4,-17,-15,3,28,-7,4
-8,-6,-6,-1,17,0,-35,38,4
1,0,3,-4,2,-1,14,34,4
-2,16,1,-11,-5,-11,-10,-26,4
-12,-19,-2,-8,-10,-9,-3,41,4
0,-22,-8,6,-2,-6,10,-19,4
-25,-24,2,-1,-9,10,-2,-29,4
28,17,1,9,2,5,3,13,4
6,-10,0,6,7,5,-13,-11,4
11,-7,3,5,-5,9,-18,-8,4
1,-18,-5,-10,-4,3,29,-3,4
16,-5,0,-8,1,2,-16,-10,4
-51,-12,0,-3,2,1,20,14,4
-56,8,-5,1,6,-17,5,-40,4
46,12,0,3,6,3,2,-5,4
73,8,2,20,6,5,3,20,4
14,-12,2,-7,1,4,-17,-10,4
3,-12,-1,-3,-6,4,2,11,4
-44,0,5,0,9,-7,-13,-8,4
-32,11,-7,-14,-5,-1,-7,-26,4
30,-20,0,11,4,0,-7,-13,4
28,18,0,7,-4,0,-3,-1,4
41,66,-2,-17,-13,-5,-20,-6,4
-9,-13,-2,9,-2,3,6,8,4
9,-15,-1,-2,-10,-8,-10,-20,4
70,-5,6,23,12,-8,10,23,4
-25,-31,1,-11,9,2,-33,-25,4
-37,-20,-6,-24,-15,-1,56,24,4
-7,35,-7,-10,-2,-12,-48,-48,4
-29,-6,-3,-8,-6,5,-7,49,4
1,-3,4,24,8,2,-1,10,4
-42,-16,1,4,1,1,1,13,4
12,-10,3,-2,0,7,11,16,4
-17,-2,2,4,1,-1,-3,-8,4
24,34,-7,-5,3,-2,-10,-1,4
15,10,2,3,-7,0,14,11,4
81,44,-2,-1,8,-1,5,11,4
0,-1,-4,0,11,4,-25,-58,4
-31,-37,3,11,9,0,12,11,4
9,11,-4,-15,-3,-3,-19,-11,4
-7,21,6,10,9,3,9,-7,4
4,4,3,9,-7,1,-12,-13,4
2,-16,-4,-2,-9,-1,25,13,4
4,12,-3,-22,-13,-8,9,-19,4
-21,-15,-6,-21,-18,-6,-28,8,4
-7,10,-6,-2,-14,2,8,-13,4
-7,-4,0,2,-13,3,23,74,4
10,46,2,23,3,-7,-86,-86,4
-31,-6,1,-4,-7,0,22,7,4
-5,21,1,-2,11,8,24,28,4
28,14,1,1,0,-6,-54,-20,4
-36,-3,-6,-1,2,2,39,-21,4
53,-14,2,2,11,5,7,39,4
-6,4,0,-4,-3,-2,-38,-13,4
-53,-15,-5,-1,3,4,64,73,4
-14,-3,8,57,32,5,-42,19,4
-34,14,-13,-64,-27,-5,-14,-33,4
4,-4,-1,-8,-5,-2,27,11,4
12,-4,0,-7,-5,2,-32,-34,4
29,7,0,-1,-4,-1,28,51,4
-6,-19,-2,30,27,-2,17,23,4
-6,-9,1,-7,9,-8,-6,23,4
-1,18,-8,-22,-16,-8,-8,-3,4
30,14,7,5,12,5,37,81,4
-24,-18,-2,-9,-6,0,-36,-89,4
-1,17,0,-3,-1,-8,19,71,4
-37,-16,7,20,17,1,-14,-16,4
-45,-18,-9,-16,-4,9,61,-19,4
-22,-25,-1,14,4,-6,-42,-42,4
40,-2,-3,-1,7,1,-13,-13,4
1,-1,-1,-4,-2,1,-7,-27,4
-49,7,-1,-6,-6,-2,-26,4,4
-5,28,3,10,2,-1,18,-32,4
5,-11,1,-2,7,-2,-10,-7,4
-8,1,3,-2,0,1,25,-11,4
43,-15,-2,-9,-1,-5,-38,-19,4
17,-29,6,24,0,0,-22,35,4
-1,6,-1,-2,-4,-8,-2,-5,4
19,-16,5,25,4,-1,30,6,4
-22,-33,-6,-40,-11,-4,-23,-26,4
-1,-7,-1,18,17,0,44,79,4
-13,-21,5,12,0,4,3,-15,4
-8,-17,-9,-27,-10,-7,-20,49,4
36,-24,3,-15,-13,-5,-29,-73,4
18,-12,0,-4,-13,0,8,83,4
37,38,1,4,10,0,-7,-47,4
-52,-39,-2,11,8,4,8,4,4
15,-20,14,14,10,-5,-4,8,4
8,17,-5,-8,8,2,12,40,4
-14,-20,-1,3,-2,1,7,-11,4
8,1,-3,-5,1,0,-20,-77,4
78,20,1,4,3,-2,38,38,4
-28,-21,0,3,2,-5,-31,-67,4
-21,-14,-4,-8,-8,3,-5,-26,4
100,43,4,-2,1,-7,-29,14,4
-16,-13,-7,1,-4,8,18,15,4
5,2,0,0,-4,-3,44,16,4
9,9,-7,-12,-5,-4,12,83,4
-32,-12,4,-2,-3,-5,-25,-54,4
22,32,0,6,7,0,-24,-2,4
104,66,-7,-30,-10,2,7,5,4
-18,-15,1,-6,-3,0,-4,4,4
67,20,-1,5,11,1,2,37,4
-48,-7,0,8,11,-1,14,-8,4
-39,-17,0,5,7,2,-2,-11,4
5,-4,-1,-16,-6,-4,4,-11,4
4,20,2,11,9,3,8,0,4
-16,-10,-7,-12,-28,8,25,18,4
-12,3,-2,3,0,-10,-52,22,4
-9,-3,1,8,8,-2,8,26,4
-49,-10,-2,-7,-14,-3,22,-40,4
-2,4,3,11,12,4,16,25,4
-39,10,0,-6,4,0,-31,-80,4
-8,-9,-3,1,6,-1,-1,2,4
-23,-29,-4,-9,3,3,11,-4,4
-20,9,-6,10,2,-4,-16,-9,4
6,-8,4,21,13,8,28,30,4
-80,-39,-1,-10,-3,-3,-21,-33,4
-21,-6,-2,-2,-1,0,17,3,4
-26,24,1,-5,-9,-6,-23,-11,4
-45,-22,6,18,5,-3,-9,-34,4
45,13,-8,-20,-16,4,12,8,4
1,4,0,17,10,4,2,61,4
13,23,0,-11,7,-3,-5,-68,4
-17,-13,2,-26,-5,-3,15,19,4
13,8,13,12,-7,-2,-15,-23,4
-6,10,-24,-11,4,-1,-2,5,4
29,21,-1,10,17,0,-51,-51,4
10,19,-8,-8,-3,-2,50,7,4
-2,-2,-1,-4,-4,5,-17,-68,4
-40,-1,2,-6,-13,-5,35,4,4
-7,10,2,6,7,0,-10,14,4
-5,-4,-2,9,6,7,29,62,4
-77,-63,-1,2,10,-3,-24,-35,4
6,-8,8,3,-1,-8,-53,-79,4
1,-16,-4,-3,10,-6,10,26,4
6,-6,1,-1,3,2,0,4,4
2,39,-3,5,1,-3,-18,-23,4
53,36,0,-1,-2,2,36,70,4
-7,10,-2,-6,-7,-1,-34,-12,4
4,12,-4,-5,-7,-11,5,24,4
16,-8,7,32,23,8,23,46,4
2,4,-6,-36,-22,-5,-28,-24,4
12,5,8,15,15,0,17,39,4
-5,-9,-4,-13,-12,3,6,14,4
-3,0,-5,-4,6,-3,-13,-39,4
-11,19,4,8,16,5,5,21,4
-6,-8,-4,-8,0,-6,13,11,4
16,-28,6,11,10,1,-21,-34,4
19,11,-3,2,3,0,16,39,4
76,-4,-2,-1,-4,2,-5,-22,4
13,-4,-1,0,-4,-8,-45,-2,4
5,9,-4,-5,-4,-1,1,4,4
1,-12,2,-9,-12,-3,13,-28,4
-42,-25,5,3,-2,2,-38,5,4
-25,-2,-7,1,4,-1,26,41,4
-49,-29,-4,-5,-4,-5,13,32,4
26,-11,-2,-1,8,1,8,-3,4
-14,-13,2,5,-2,8,38,79,4
2,-21,2,12,6,-1,-36,-73,4
-20,-6,-1,-14,-12,-4,-26,22,4
11,-2,-2,4,1,-4,18,38,4
-15,-21,1,-11,12,-3,-2,-1,4
-28,-27,3,7,-10,1,7,-15,4
14,10,-7,-11,1,10,-6,-76,4
-1,-26,2,13,5,-5,6,50,4
13,45,-2,-15,-2,2,-5,-46,4
-6,-10,-1,-4,-5,0,15,17,4
40,19,6,24,10,2,-11,-30,4
8,-1,-5,-22,0,-2,8,11,4
-39,-26,2,12,6,-5,-17,-19,4
59,42,-3,-11,-8,5,19,26,4
-2,2,2,9,3,-2,1,-13,4
-16,-4,-4,-8,-3,3,34,74,4
2,-8,3,10,13,-3,-6,-1,4
-17,-2,-2,-4,9,-3,-14,-9,4
16,-14,1,-4,-10,-1,11,16,4
-2,20,3,-2,5,-2,-26,4,4
-10,0,-3,2,0,1,-5,-28,4
6,-5,2,17,3,1,22,45,4
-6,3,-6,-9,-5,-1,0,8,4
10,4,2,3,1,0,-3,-23,4
-32,2,-5,-2,-6,1,-13,-9,4
-69,-23,-2,-1,-2,3,17,-38,4
-22,-8,0,1,7,-3,10,47,4
69,57,-3,-5,-2,0,-10,-40,4
21,3,0,2,7,-4,3,60,4
-12,1,-2,-7,-1,-4,-36,-76,4
1,6,3,2,14,1,18,28,4
-26,-11,-3,-4,-12,2,18,36,4
-16,-6,0,10,12,-10,-42,-47,4
32,9,-1,-1,5,1,29,60,4
-3,-6,-1,-10,6,0,-16,-31,4
1,8,-1,-5,-17,-1,-3,30,4
12,0,6,8,-1,5,10,9,4
-18,12,-7,-20,-9,-4,-23,3,4
-1,3,-3,32,18,0,32,-74,4
-12,-2,2,-23,0,-7,-14,-2,4
0,21,-5,-7,-9,3,1,-42,4
23,14,0,-8,-12,0,-10,17,4
6,3,5,5,4,4,4,33,4
-2,2,-5,4,13,1,-8,-30,4
5,-18,6,3,1,-2,16,51,4
0,-1,0,-4,12,-8,5,-4,4
-6,-6,-1,-5,-10,-3,-10,21,4
8,-19,1,9,10,3,7,15,4
0,6,-3,-6,-3,-1,-2,58,4
-5,-16,-3,4,2,4,23,-14,4
2,-3,3,-2,-6,-7,-8,14,4
-8,22,3,5,1,-2,6,-18,4
-22,-23,0,16,18,2,3,19,4
-10,-10,1,-15,-8,-6,28,13,4
-22,16,-8,-29,-15,2,-21,-30,4
-7,-11,-2,0,4,-1,-21,-12,4
43,30,1,0,-12,-4,5,-28,4
60,31,4,7,9,-1,-7,14,4
52,5,3,6,3,2,-18,-22,4
8,14,1,2,8,3,20,60,4
-30,4,-1,-8,0,-5,-17,-81,4
-18,-23,-4,1,5,-1,-2,0,4
-4,0,-3,-1,5,-3,-6,-1,4
-10,-13,-1,21,12,4,3,5,4
8,2,2,-28,-12,2,-14,-26,4
1,2,0,-1,-2,5,19,45,4
-7,-17,-3,8,10,-2,5,42,4
-29,-23,4,10,-7,-5,-23,-69,4
-5,-19,2,-13,10,1,35,53,4
1,9,-6,-4,-21,-2,-35,-62,4
12,17,0,-8,-13,1,-22,-56,4
-7,-16,-3,0,3,-8,-1,19,4
3,-15,-1,14,5,0,2,-11,4
11,-4,2,-3,3,6,-7,12,4
-3,-9,3,4,4,-5,-5,16,4
-11,-6,-3,-5,-7,-2,-2,-58,4
5,9,-5,-2,4,-5,0,20,4
-21,-10,0,2,1,0,12,20,4
-7,-12,2,8,3,1,18,52,4
55,20,-1,-9,2,1,4,25,4
-6,-18,-6,-15,-3,0,-10,1,4
-4,9,-5,-5,-2,0,17,16,4
6,-16,13,9,-1,-1,-6,-7,4
-25,-22,-6,-7,-2,0,-7,8,4
34,3,1,6,1,3,29,41,4
-11,15,-4,4,12,0,1,-37,4
-82,-33,-2,-9,1,-1,-25,-57,4
-30,-13,2,1,-1,-2,-4,-24,4
-47,2,3,20,14,0,5,3,4
3,-12,0,-10,-3,-7,-21,10,4
27,-2,-5,-12,2,1,2,9,4
11,1,-1,1,4,4,19,40,4
-25,-5,-2,0,-3,-8,5,-25,4
-11,-15,4,20,12,1,10,6,4
13,8,-1,-15,-1,-8,-20,-53,4
6,-2,-11,-26,-17,-1,-15,8,4
24,21,17,0,-6,-4,26,21,4
-22,-2,-17,-1,-2,2,-9,-34,4
14,4,0,10,5,0,7,16,4
-36,-11,0,0,2,0,-1,1,4
39,6,0,-2,-2,0,-3,-18,4
1,-12,9,1,-3,-2,-16,-2,4
-11,0,-4,4,1,0,7,39,4
3,14,3,3,9,4,28,16,4
-25,-20,-3,19,2,2,-5,7,4
3,-8,-2,-13,3,-7,-54,-49,4
20,11,-7,7,3,1,42,92,4
3,8,1,-3,16,0,16,-18,4
17,21,-4,-3,-8,5,-23,-22,4
72,39,2,-8,13,-3,22,43,4
-7,-2,-1,-11,-9,1,-19,-20,4
31,26,-2,7,2,1,2,13,4
-12,-10,-6,1,5,0,-11,-30,4
-36,-15,-2,-2,-4,-5,9,-10,4
-2,3,0,-4,-2,0,7,27,4
0,-10,2,3,-1,-3,-28,-38,4
8,8,-6,-8,0,-2,-9,-16,4
-24,-3,2,5,-9,1,2,-7,4
53,-6,2,11,4,5,9,-25,4
-18,-18,16,17,7,5,33,61,4
40,-5,-28,-28,-5,-6,-26,-8,4
1,-21,-6,-4,8,-4,-29,-44,4
-14,0,5,-3,-7,3,-22,-34,4
-8,1,-8,-1,11,-1,27,54,4
-6,-16,6,6,6,1,32,26,4
43,27,2,0,-2,0,-17,26,4
4,0,1,8,6,0,-2,-7,4
15,20,-3,-4,-5,-5,-45,-35,4
-21,-5,3,3,8,1,26,8,4
-16,1,-4,-3,-14,-7,-3,-74,4
-19,-9,-5,0,-7,5,2,16,4
3,-8,-6,-4,0,-7,-15,67,4
-3,15,1,3,5,1,-3,-19,4
-9,-21,8,1,-3,5,18,46,4
-12,-6,-5,-9,-4,-8,-1,-11,4
10,-5,5,1,-5,2,14,-25,4
-38,-6,-7,9,8,-4,-30,-59,4
-2,-6,2,10,10,2,22,58,4
-3,4,-16,-29,-3,-2,6,-22,4
5,1,-1,11,-2,0,-16,-25,4
-9,-6,7,-17,-6,2,0,-9,4
4,-7,-10,14,10,1,17,-8,4
-1,-17,-2,7,4,2,3,14,4
-57,-16,-2,-4,-1,-8,-14,-23,4
8,-16,2,9,6,4,21,38,4
-8,-29,10,-1,-1,-10,-53,-31,4
-4,31,-1,-3,-2,-3,7,60,4
4,-15,-3,-5,5,0,1,-23,4
-7,-4,2,2,1,0,-3,22,4
5,-12,5,-7,-7,6,24,17,4
-22,-19,0,4,0,-2,-20,-24,4
10,-15,1,0,-3,0,-3,-6,4
-18,9,-1,-4,-4,-1,1,-21,4
7,-2,2,10,5,1,14,59,4
-2,-15,-2,-14,-1,-7,6,-3,4
-5,-2,-4,-2,-10,-1,-10,-73,4
14,-3,-5,-5,-3,-4,-13,16,4
-18,16,13,-8,-9,2,8,21,4
10,-4,-7,-3,0,3,0,-2,4
-3,6,-12,-4,-1,3,0,31,4
-3,-3,-3,6,1,0,10,6,4
-20,-21,2,2,0,-4,5,8,4
10,15,11,12,12,-5,-46,-72,4
10,4,0,-6,-3,-3,18,12,4
30,26,9,1,5,4,6,28,4
4,10,-14,-6,4,2,-7,7,4
-8,-5,7,0,-4,1,6,17,4
11,0,-3,1,10,0,13,45,4
-11,8,3,-2,5,-6,10,-2,4
11,8,3,4,0,-2,-24,-22,4
-6,-12,0,11,6,-1,10,-7,4
1,7,3,-1,-3,-3,-21,-20,4
1,10,-7,-33,-15,0,10,32,4
3,-1,-3,5,0,1,6,-19,4
9,-2,-10,-6,-2,0,20,63,4
-15,20,5,6,14,4,0,-26,4
-8,-2,-3,9,6,-4,-20,-48,4
-4,-1,-5,-6,-5,2,3,-9,4
0,6,0,3,7,2,-11,-1,4
6,-9,1,-3,-3,-2,13,30,4
-37,-2,-8,1,7,3,-15,-1,4
2,5,0,-7,5,-8,3,-7,4
-6,-8,8,4,-5,2,7,-10,4
14,7,-6,-1,9,-1,-1,3,4
-4,13,2,-8,3,0,-18,-39,4
-2,0,4,17,-4,1,-8,21,4
2,-10,-8,-11,-6,-2,-2,-15,4
-25,0,1,1,2,1,-15,-20,4
-2,-11,-2,0,4,-1,15,24,4
-36,-22,-8,-17,-8,-3,-3,-3,4
-8,-22,9,11,-5,-2,6,2,4
17,8,-7,-6,-13,2,-4,-23,4
24,-5,-18,7,-1,0,11,44,4
22,-14,7,3,8,-3,-29,-53,4
8,-12,4,5,5,-1,-2,18,4
53,39,-3,-5,3,4,27,34,4
-14,-7,7,4,7,-3,-3,-11,4
-4,-9,-15,-5,2,3,-4,-8,4
13,24,-5,-4,4,-10,-15,35,4
2,-23,2,-1,1,0,25,17,4
8,-3,8,0,-5,-1,15,7,4
-2,-18,1,3,-3,9,23,49,4
-16,-26,15,20,15,6,-12,-45,4
-15,-4,-28,-17,-9,-5,-15,0,4
-4,7,-4,-5,-4,-5,-17,-5,4
2,-43,7,12,8,-3,18,26,4
-21,3,-15,-20,-6,5,10,-3,4
7,6,8,6,4,-2,-9,-19,4
16,10,5,-3,-7,-1,-29,22,4
6,3,-5,-2,-1,1,11,-38,4
6,-5,6,9,4,2,16,-46,4
-15,2,7,3,3,-5,-57,-58,4
-12,-3,-2,2,7,0,20,27,4
15,22,1,-3,1,1,10,16,4
-8,11,-1,-3,-4,-2,3,13,4
-21,-7,-2,-2,-7,0,-16,-65,4
2,-22,-4,-4,-9,-1,-18,-4,4
-7,-8,0,-5,-2,-4,-3,-1,4
2,14,0,-8,-5,0,26,49,4
43,-27,6,5,10,-2,-15,2,4
0,-36,3,22,4,-2,6,-38,4
-11,-6,2,-21,-5,-2,1,27,4
-10,-22,-16,8,10,2,15,51,4
0,1,5,4,-6,4,-28,-17,4
-21,20,-7,-22,-3,-10,-14,-60,4
12,-17,-4,1,-3,0,39,100,4
8,5,2,6,7,-1,-18,-61,4
-10,-14,3,2,2,2,2,7,4
15,-13,-1,14,10,8,8,24,4
-17,-7,7,11,9,-1,-6,-22,4
-21,-7,-1,-24,3,-5,-4,6,4
-9,-18,2,-10,-8,-6,4,9,4
-11,-2,-2,-6,-2,2,-1,12,4
-5,11,-4,8,4,2,16,-6,4
-3,-11,2,2,-3,-5,-27,-61,4
18,9,6,2,19,-1,19,26,4
22,-13,4,0,-6,0,18,58,4
11,4,-1,-3,-1,6,-67,-92,4
27,40,-9,-3,2,-11,9,-11,4
-15,1,-3,-3,-8,-2,42,70,4
-6,1,3,8,6,1,15,35,4
8,-5,8,19,10,8,-4,21,4
-13,-2,-2,-22,-34,-1,-18,-19,4
-15,2,-8,6,6,0,7,-9,4
4,2,-2,-16,-18,-3,-22,-21,4
-10,-16,2,16,6,-4,1,-37,4
6,-7,3,9,6,0,-2,17,4
-5,7,-11,-8,1,-4,11,-9,4
7,-9,-3,11,6,1,-4,-1,4
0,9,-1,-15,-2,-5,10,8,4
-18,-10,0,1,7,-5,-14,-2,4
-44,-31,5,3,-2,5,2,24,4
5,14,1,0,5,2,-3,-12,4
6,43,-8,-9,2,-11,-21,-52,4
-2,-7,-1,3,18,1,-3,75,4
-8,7,3,5,-2,6,1,-77,4
-15,11,-4,-2,1,-10,1,65,4
-15,-7,-7,-13,-9,0,12,11,4
17,6,1,11,6,1,17,2,4
9,7,12,23,17,2,-10,14,4
3,12,-1,-17,-11,-3,5,-2,4
9,23,-11,-16,-11,-1,-7,10,4
-4,1,2,2,3,2,-6,-31,4
7,-10,6,-1,-1,-4,0,18,4
-3,-1,-2,7,7,3,6,-13,4
-22,-9,-4,4,5,0,7,9,4
-20,-10,-2,5,2,0,-6,-2,4
10,4,-1,-2,0,-1,11,12,4
-15,9,2,2,7,-3,-19,7,4
11,-16,3,-9,-8,5,25,-7,4
-15,8,-6,-3,6,-8,-60,-15,4
-8,15,-7,-11,-3,-1,13,14,4
-6,-2,1,-1,-1,1,0,-19,4
6,-12,-1,12,8,1,30,53,4
9,9,4,-2,4,2,0,-23,4
14,8,-1,6,3,0,-8,20,4
2,-1,6,-5,4,0,-13,-48,4
-11,3,-24,-13,1,-4,-4,3,4
5,-1,-5,0,-4,1,12,4,4
-2,6,-3,-2,4,-4,-12,-8,4
-6,5,1,3,5,3,24,17,4
10,18,8,5,12,-2,-7,-22,4
12,18,1,-4,-14,0,-35,-19,4
-7,-17,-7,0,4,0,-12,-2,4
8,12,-1,3,4,0,12,-2,4
26,-12,15,-10,-1,-2,0,21,4
-46,-32,-7,3,5,2,44,85,4
2,0,4,1,8,-1,-13,-11,4
-3,-19,-10,-8,-6,-2,-16,-34,4
-17,23,4,0,6,-4,-21,-36,4
15,6,9,12,8,2,55,68,4
-2,-1,-3,-19,-14,-1,-13,-28,4
-5,-52,-5,-10,5,-1,4,27,4
-11,-4,-5,-8,-2,0,-3,-16,4
12,-14,-2,-4,-7,0,-22,-42,4
5,9,4,9,9,-2,18,9,4
9,-25,5,4,-15,1,3,-41,4
-6,-17,-2,-5,-14,-1,-13,-36,4
11,-7,0,-3,4,3,-28,4,4
-2,-13,-1,-3,-11,0,17,52,4
-10,-15,3,2,-3,-5,-30,-19,4
13,-10,-4,5,-2,1,28,14,4
0,-8,-6,-2,-6,2,23,-28,4
-2,-5,1,-4,-1,-3,-20,-46,4
-10,0,3,3,5,1,18,54,4
-13,10,8,-10,-4,-5,5,1,4
-7,-8,22,0,9,-1,-21,-21,4
-7,-5,-25,-13,-6,0,0,-4,4
4,32,18,-5,5,-1,-6,18,4
-11,-30,-18,-2,-3,-3,1,29,4
12,13,-25,-8,0,1,31,37,4
-4,-10,18,-2,11,-3,-34,-51,4
-6,6,-11,11,10,4,7,40,4
-8,4,8,3,3,-4,-5,-56,4
14,-19,-1,7,-2,0,6,3,4
5,-3,-7,-2,-10,1,1,-5,4
20,8,-5,1,5,0,-9,35,4
24,-7,8,7,-4,8,4,20,4
-17,8,-7,-5,1,-13,2,-17,4
1,2,1,5,1,2,4,-21,4
-1,15,6,-4,4,-5,5,-28,4
-1,6,-5,3,-2,2,-29,-18,4
1,-4,3,23,7,5,1,-6,4
3,13,12,-24,-10,-5,2,13,4
3,14,-29,-4,0,-2,-6,-8,4
-1,-8,-1,5,2,-2,0,24,4
-13,-12,6,14,10,3,5,-7,4
-2,5,-3,-5,1,-3,-2,16,4
-2,-8,8,9,-1,2,4,-24,4
-5,3,-14,-11,4,-1,2,27,4
0,4,1,-10,-2,0,-8,-24,4
-3,-3,0,6,2,-3,3,-24,4
-7,29,2,-7,7,3,31,37,4
4,15,0,21,2,-4,-41,-52,4
-10,-5,-4,-17,-2,0,-23,4,4
19,7,-3,2,0,-1,3,49,4
10,5,2,4,-7,-2,-16,-19,4
-2,-7,17,3,0,3,46,65,4
1,-3,-22,-9,1,-3,13,27,4
-23,-2,-2,9,17,-3,-25,2,4
1,-18,-1,-6,1,-3,8,4,4
5,-8,-3,0,4,3,6,27,4
8,-14,21,10,-6,-7,-20,-49,4
-25,11,-11,1,-2,3,7,19,4
21,45,-15,-30,-11,-4,-2,11,4
7,2,0,-8,0,-1,-8,-14,4
14,17,-5,1,-10,6,19,40,4
9,-11,15,20,8,-2,-27,-82,4
-18,0,17,-6,-13,3,-12,14,4
-10,5,-4,-7,5,-1,20,73,4
-3,7,2,-4,7,3,-11,-63,4
5,5,-5,7,2,3,22,59,4
-48,-22,1,7,7,-2,-9,-34,4
7,2,3,1,2,-3,-2,-7,4
8,2,4,0,-1,1,12,19,4
-5,-6,-2,-5,-10,2,5,-5,4
17,7,3,17,8,-2,3,-14,4
-7,5,-4,-8,-3,0,-4,10,4
-3,-18,2,-16,1,-3,8,6,4
-11,7,-6,-9,2,-5,-3,-20,4
12,-8,-3,-1,7,1,5,22,4
-1,-1,12,10,12,-7,-12,11,4
13,29,-11,-5,-9,2,1,18,4
10,4,-9,-16,7,0,-9,18,4
3,-15,7,14,5,0,23,38,4
-2,14,-2,3,0,-1,-9,-36,4
-19,-23,-10,-21,-5,1,5,-15,4
8,-15,0,0,3,-5,-11,16,4
5,9,-9,6,5,2,9,14,4
1,-26,-1,0,6,1,-4,-9,4
-19,10,19,7,3,-5,-2,-26,4
8,13,-15,-5,-5,3,24,20,4
9,-14,0,-2,-5,1,-33,-58,4
-36,-8,-10,-3,-10,-6,0,21,4
-2,-23,7,2,-1,-4,-34,-37,4
8,-28,5,5,0,-5,-1,35,4
-4,-11,-2,2,2,6,-1,-22,4
-18,6,-8,-13,-3,0,3,7,4
15,2,-7,2,4,0,7,20,4
-2,3,7,-3,2,-1,21,9,4
5,-20,-7,1,0,-4,-11,-13,4
17,-8,8,0,11,4,15,-4,4
7,-1,1,17,6,2,-4,6,4
1,-7,-3,-6,-8,-5,-4,20,4
-4,-6,3,6,6,-2,-7,-38,4
-1,0,6,-22,-8,-3,-5,-28,4
7,-7,-16,0,-7,-3,34,70,4
-10,-21,11,12,10,1,-27,-28,4
-5,-5,-3,-7,-1,0,20,35,4
40,-4,1,10,5,2,23,88,4
21,-11,0,1,-5,-1,-31,-74,4
-8,-1,-3,-1,2,-4,-17,29,4
-10,10,6,-5,-14,-1,-1,-2,4
13,20,-1,6,9,-6,-8,-21,4
4,10,6,-5,-8,6,17,25,4
-2,2,-1,-2,3,-1,0,-26,4
0,-6,-3,3,9,-7,-18,-32,4
-18,-10,11,-9,0,2,0,-25,4
-9,4,-26,-11,-4,-4,-1,7,4
3,10,18,17,-8,4,-5,-59,4
-10,-20,-29,-19,-6,0,-1,27,4
-7,-8,-9,11,14,-4,-5,-20,4
-3,0,14,5,2,-3,-12,15,4
10,5,-13,-18,-12,1,20,4,4
5,8,10,6,5,2,-2,-52,4
-5,-2,-5,4,-3,1,1,58,4
-3,4,1,4,8,-5,-26,-52,4
-6,7,5,4,6,3,26,47,4
8,19,3,0,5,1,-9,-29,4
-14,18,-9,1,2,2,-1,15,4
-25,-7,1,-3,-2,1,10,10,4
13,-1,-1,-4,-3,1,13,72,4
2,4,9,-1,5,-2,-21,2,4
8,-7,-18,7,-3,0,5,-6,4
-1,3,-1,-14,-2,-2,-4,-11,4
-22,-7,-2,-3,1,3,4,-20,4
1,-24,3,32,15,-1,7,23,4
-2,17,4,-18,-15,-4,-12,-50,4
7,1,13,6,3,3,28,55,4
10,10,-7,-6,4,-5,-25,-3,4
-7,-17,7,-2,-8,-1,6,-37,4
-24,11,-2,6,2,-2,-17,-32,4
5,1,-2,-7,-4,2,5,-10,4
0,-3,4,4,-8,4,21,-45,4
3,13,-4,-6,6,-10,-1,92,4
9,-11,-2,1,4,1,4,-42,4
-3,2,-2,-2,5,-5,-9,12,4
3,-9,1,9,10,4,16,12,4
5,5,-10,-17,-7,1,-1,3,4
1,-7,0,1,5,-1,-2,3,4
-12,4,3,-6,9,0,9,12,4
-7,-10,2,2,11,-5,-18,-11,4
44,50,4,-3,1,5,10,-10,4
4,17,12,14,2,-2,-1,27,4
10,10,-15,-6,0,3,-1,-2,4
4,9,-5,-5,-2,-5,-6,-46,4
-21,-16,1,8,5,-2,-4,3,4
5,9,5,-15,-9,7,21,24,4
-10,2,4,7,1,1,34,84,4
-24,-4,-5,-7,1,-11,-80,-52,4
-7,-1,-4,2,1,-3,39,68,4
2,-23,2,12,6,0,-2,6,4
2,-7,0,-8,-2,-1,14,18,4
8,-3,11,2,-3,2,3,37,4
-13,-17,-24,-8,-8,4,-17,-50,4
13,-8,-3,6,-2,-6,-6,-1,4
-2,-9,-6,-8,6,-3,-14,-12,4
6,-21,0,2,3,0,7,-20,4
-5,-15,-3,-5,0,-1,-7,-26,4
6,-9,18,-3,-2,3,5,28,4
1,-16,-16,-2,1,0,-12,-36,4
4,-9,13,18,11,1,19,47,4
-29,-10,-10,-8,-15,-3,-17,-64,4
13,6,-6,-11,-5,-3,8,45,4
-16,-15,12,15,3,-2,-15,-10,4
-9,-14,-4,-8,7,1,8,-40,4
-10,0,-4,-12,-11,-8,-16,14,4
-10,-6,-5,9,3,-1,15,29,4
11,13,1,2,0,0,-15,-29,4
4,-7,-10,0,-2,4,25,31,4
5,-14,9,3,6,1,8,28,4
-6,-7,-8,-7,-1,-3,-27,-79,4
43,-4,7,6,6,0,30,107,4
-17,12,-9,-10,-5,-7,-44,-89,4
18,3,7,0,2,2,12,59,4
-4,-4,-4,-3,-4,-2,-15,-29,4
-7,5,10,-1,1,-1,0,42,4
-3,-5,-22,-3,1,1,14,37,4
7,15,2,1,-2,-1,-1,-12,4
-8,6,0,-2,3,0,-3,-4,4
-4,10,4,0,-4,1,-2,-28,4
3,0,-12,3,-5,3,7,12,4
-12,-11,-10,5,-4,-2,-6,-17,4
-8,3,7,-9,-3,-3,1,8,4
0,13,-3,-3,-1,0,7,-12,4
-1,-4,-5,-7,0,-5,-10,11,4
3,13,4,1,-5,1,-1,-35,4
16,0,0,0,3,-1,10,20,4
6,6,-3,0,1,-2,-26,-72,4
4,5,9,3,2,2,22,37,4
0,-1,2,-3,10,-8,-14,99,4
-14,1,-4,-3,4,-2,-11,-38,4
-6,-6,0,10,-1,6,14,-8,4
6,3,9,-18,-14,1,11,35,4
4,3,2,0,5,-1,1,-20,4
1,-7,-5,3,2,0,3,32,4
-7,3,-6,-1,5,-5,-9,-10,4
0,-4,14,0,-7,0,8,-20,4
7,14,-19,-2,3,5,4,1,4
3,-3,-3,-2,6,1,2,11,4
-22,-6,-2,-4,-4,-5,-17,-37,4
1,15,-1,2,7,1,24,42,4
-5,-1,9,-2,0,-4,-19,17,4
-11,6,3,1,-5,1,-20,-22,4
-2,-8,-11,-2,1,-3,-4,-14,4
14,8,5,3,7,0,10,19,4
6,-6,5,-8,6,-1,2,-29,4
-4,9,1,1,11,6,20,14,4
3,-18,-3,15,17,1,3,25,4
4,26,-3,-16,-16,-6,-11,-18,4
10,7,4,-5,2,-1,19,-3,4
-2,-13,16,4,-6,-4,-13,-8,4
2,0,-9,-5,-8,2,-20,-47,4
-5,-5,-12,11,13,3,-6,2,4
-3,-13,6,9,2,1,5,-2,4
0,5,-1,-4,-1,2,13,-53,4
11,8,5,1,1,-5,8,40,4
-5,-10,7,3,2,-5,-4,7,4
-19,-15,8,-5,6,-1,-3,-17,4
7,3,-6,-13,-12,-2,1,23,4
-4,1,1,1,-1,1,6,-13,4
4,5,7,-4,0,1,12,22,4
-4,2,-4,0,-10,0,-28,-64,4
-11,-5,-7,13,-1,-8,-16,-18,4
2,11,4,-21,-6,-1,4,30,4
1,18,-5,-2,1,-4,4,14,4
4,-20,-1,5,-2,2,-12,1,4
7,16,-5,-7,-1,1,15,8,4
0,-4,14,1,1,0,-5,-9,4
-11,-21,-22,13,10,1,-9,-15,4
1,-8,-7,-13,-8,3,20,26,4
-23,-8,-13,1,5,-1,-12,-5,4
2,-34,9,-2,10,-6,-1,8,4
5,-9,2,1,0,4,8,-14,4
0,-8,-4,8,1,0,2,40,4
10,-8,10,-5,4,1,10,20,4
-28,8,-6,-1,0,-7,-53,-91,4
4,-6,18,10,-3,3,-3,5,4
0,-18,-11,-1,-5,1,17,8,4
8,-3,-4,5,6,3,5,29,4
5,5,-6,3,11,4,29,43,4
-13,-33,-5,-15,-12,-8,-32,-64,4
0,14,5,-2,-1,0,1,-6,4
-4,-1,1,9,0,-2,5,9,4
5,-4,10,5,1,4,1,-11,4
-3,-16,-6,7,-4,-4,-13,-2,4
-1,-14,-5,-5,-4,-3,12,1,4
6,11,-5,-10,2,-2,-14,2,4
-5,-2,-1,5,-2,-2,4,-14,4
2,4,2,0,1,3,2,4,4
-4,23,4,1,1,0,14,35,4
2,6,-18,6,0,-4,-29,-38,4
6,11,-9,-5,3,3,29,29,4
3,28,6,-6,3,-2,-22,-23,4
7,9,-5,-4,-14,-3,-20,-89,4
-18,11,4,-3,-9,0,31,62,4
-1,15,-1,3,-2,-1,0,40,4
-9,-12,-1,28,15,-1,-6,18,4
9,10,34,-14,11,2,0,0,4
4,15,-24,-6,-2,-2,9,-2,4
0,-11,-17,-36,-18,-6,-5,-5,4
8,15,-6,17,-1,1,12,22,4
-8,3,5,13,8,0,-10,-2,4
0,-15,8,0,6,-1,-13,-10,4
-4,6,2,0,6,-2,0,-2,4
7,18,-6,-6,1,2,2,16,4
-20,-6,-10,-3,3,-5,-13,-34,4
-3,-2,11,-3,-5,2,-7,-28,4
9,12,-1,8,1,3,17,51,4
1,1,2,-13,-6,1,-17,9,4
11,-3,-3,15,14,0,47,54,4
5,0,13,-11,3,-2,-32,52,4
-14,2,-30,-4,4,-5,4,-50,4
-2,2,2,-7,-2,1,17,23,4
-6,-4,-19,-5,8,3,-1,25,4
7,-8,5,-4,-3,4,1,-7,4
2,-2,8,-5,0,2,-17,-2,4
-14,5,-3,-10,7,-6,12,6,4
16,13,-6,-10,-1,-1,-9,-23,4
2,-7,3,12,6,-1,4,-31,4
1,2,2,-4,-11,-1,-9,-10,4
-5,-1,-10,-14,-5,-2,12,-1,4
-7,-3,3,0,-3,-2,-10,11,4
-12,-26,-2,5,0,-3,9,6,4
15,5,10,8,10,3,6,28,4
-14,-5,-2,-1,-7,0,-77,-94,4
5,-8,3,14,-5,0,39,75,4
3,-16,-25,-9,10,1,-3,-28,4
-1,5,15,5,3,-4,3,13,4
11,7,40,3,1,7,26,-7,4
-12,-22,-58,-9,-6,-9,-29,-38,4
-10,-3,-23,-3,-3,-2,-11,-35,4
-37,-11,0,-5,3,1,1,-5,4
8,-1,-2,-5,7,0,6,25,4
1,-14,13,-1,-6,2,-5,7,4
11,3,7,4,5,0,25,36,4
-1,-8,-8,12,10,-5,-24,-48,4
-8,-6,0,-3,2,-2,8,5,4
-1,23,3,-13,-22,2,-6,-2,4
3,4,5,5,0,3,-13,-19,4
4,-11,9,1,-5,10,43,33,4
-6,25,-13,4,2,-11,-23,42,4
-2,11,5,-1,8,-7,-4,13,4
1,-1,8,-2,3,-1,7,5,4
21,10,4,7,-9,0,-6,6,4
-6,-15,-12,-4,7,3,31,19,4
-3,-16,6,9,11,5,-3,-15,4
-5,-12,4,-4,2,-1,-3,21,4
42,-9,-1,9,10,-1,4,45,4
-3,-5,-9,-24,6,3,0,-19,4
-1,18,5,-10,-17,-10,-10,-69,4
-15,1,-3,12,2,0,-27,32,4
-12,-25,-3,-19,-12,2,-42,-72,4
-2,0,-3,15,-1,-12,60,77,4
0,7,-2,-13,6,-2,15,5,4
11,1,3,-13,-12,1,4,12,4
-16,-10,-2,26,7,-2,-18,5,4
12,-4,1,-8,-5,8,-16,-13,4
-15,-14,3,3,5,3,4,-8,4
3,15,-5,-1,-1,-4,1,-19,4
-1,-7,2,3,4,0,-11,0,4
-12,-4,-1,-1,-4,-2,5,-14,4
2,0,5,32,17,2,12,35,4
8,2,-2,-58,-18,-4,-21,-12,4
-7,24,1,-13,-12,-3,16,15,4
3,-5,2,3,-1,-1,-17,-48,4
2,7,-3,-6,-5,-5,-8,-3,4
-25,1,4,22,12,-1,15,17,4
7,7,-4,-8,4,-1,13,22,4
10,6,3,-4,2,-1,-9,-12,4
-10,-12,6,6,-10,5,-24,-44,4
-5,-8,1,8,4,3,32,66,4
-10,9,-1,-9,3,-8,-27,-73,4
6,8,1,10,11,-8,-28,-67,4
16,15,1,-3,5,5,12,10,4
5,-7,-3,5,-1,-2,3,48,4
-16,-10,-4,2,4,-6,-24,4,4
9,-13,-7,-2,-8,1,8,51,4
-1,-12,13,19,17,5,7,-15,4
13,25,5,-26,-34,-4,13,1,4
0,5,7,13,8,5,-22,-37,4
-1,6,-12,-8,-6,-10,-11,34,4
10,-2,-5,-1,-8,2,66,9,4
-8,-2,12,18,15,-6,-59,-42,4
-25,-3,0,-6,-10,-2,48,63,4
-8,-18,-3,11,-1,5,-14,-53,4
3,11,11,-6,-1,5,-12,23,4
1,-9,-51,-4,10,0,8,-42,4
-5,6,-8,-18,-4,-6,-3,-14,4
1,2,-6,-2,6,2,13,52,4
-11,-3,4,1,-2,-7,-24,-47,4
2,11,7,18,8,6,11,-11,4
10,8,-15,-12,7,1,6,36,4
-5,-14,4,-7,-10,0,10,-9,4
14,9,4,-8,7,-3,-13,23,4
7,6,5,15,3,2,7,-4,4
1,-4,5,1,-6,3,16,-9,4
10,-4,0,-7,0,4,19,20,4
-24,3,-7,-1,1,-12,-102,-88,4
-1,6,-4,-5,0,-5,34,94,4
-2,1,1,-2,-1,-6,-2,-32,4
-3,-7,-1,-6,8,2,22,63,4
-2,0,-9,-1,0,0,-7,21,4
-7,-9,10,4,-2,5,-5,-79,4
8,5,2,1,-8,-4,-7,19,4
-8,6,-2,7,-4,-5,-4,-31,4
3,-3,0,6,7,6,16,26,4
-1,7,4,-2,6,-1,0,-3,4
-14,-2,0,-8,-2,-2,1,-17,4
1,0,-10,-15,0,0,-14,-23,4
6,6,1,3,2,4,15,33,4
-14,14,3,7,1,2,-3,2,4
12,-3,-2,4,2,5,9,23,4
-11,-1,7,-21,4,-1,-54,-49,4
1,13,-5,-17,5,-9,62,83,4
5,-10,6,17,-10,-1,-6,-56,4
73,33,6,5,6,4,3,4,4
-14,-14,-7,-6,-12,-4,-2,-21,4
6,-6,5,0,-16,-7,-3,41,4
9,-21,12,-4,12,0,-11,10,4
-15,-7,-25,5,-3,-4,4,-4,4
3,-9,8,12,6,3,-6,-25,4
-3,-9,-6,-4,1,2,-8,-11,4
-8,-3,1,-4,-2,-3,3,9,4
-12,-31,15,12,9,-1,-15,-16,4
-6,-12,-10,-4,-11,0,24,29,4
-10,-21,-7,-10,-12,-4,6,7,4
-3,-18,4,2,-1,6,-47,-47,4
-8,6,-1,0,2,-1,27,-1,4
4,3,-1,6,11,-11,-20,-38,4
-5,-15,1,3,6,7,42,65,4
-9,3,-2,2,10,-1,-7,-20,4
-5,6,-6,-11,-3,10,-15,-23,4
-1,-3,7,9,5,5,5,16,4
0,17,1,-7,7,-1,-18,-29,4
-6,-13,-6,-1,-6,6,16,11,4
0,-3,-2,-10,-4,-7,-8,14,4
5,21,6,12,2,-2,18,-9,4
2,-26,4,22,14,0,-20,-17,4
2,7,-10,-42,-14,-10,12,12,4
-7,-6,-1,7,-8,-3,-4,-10,4
5,-11,-2,-7,-7,2,8,52,4
-2,4,1,9,1,2,-14,-18,4
-4,17,2,5,2,-4,-14,-61,4
-10,-16,3,-4,-3,-1,2,38,4
-2,4,3,17,7,7,20,45,4
15,-17,-4,-5,-5,0,-41,-50,4
31,-4,3,0,-7,-2,27,5,4
18,2,-3,5,6,7,31,92,4
-12,-2,4,1,8,-9,-21,-65,4
-4,8,2,-2,16,3,13,8,4
6,10,21,-1,11,-7,-17,-2,4
-8,-8,-18,2,10,3,-6,-1,4
10,20,9,-13,-25,-5,-12,5,4
-3,10,-3,-5,-13,-4,0,0,4
-4,-6,-3,15,9,0,-6,5,4
-17,-28,4,-10,-6,-4,-10,-27,4
-2,4,-11,-18,-11,0,7,16,4
-8,6,-2,5,7,5,15,27,4
-13,4,-5,2,-20,-4,-26,-61,4
-1,13,7,3,8,-5,-9,21,4
3,2,-6,0,3,-1,-31,-31,4
2,1,-1,-5,-14,-6,32,79,4
2,-2,-4,2,2,0,56,82,4
-1,-1,0,-3,-2,-1,2,-47,4
6,0,0,5,3,5,-9,-9,4
-32,-6,-1,-5,1,1,-19,-76,4
-13,15,-6,-4,5,7,-11,20,4
-17,-19,1,2,2,1,-4,-29,4
-2,-15,-2,0,6,5,27,48,4
10,2,-9,-8,-13,-7,-13,-23,4
-11,7,-8,-3,0,-4,2,7,4
1,-10,11,31,10,-2,-13,-14,4
1,-6,-1,-17,-2,1,-7,-19,4
-6,-1,-4,-5,-2,-3,-7,5,4
13,-10,1,-11,-3,12,0,-22,4
-15,37,-7,-5,-5,-18,-3,64,4
-3,4,0,16,10,-2,4,-2,4
-2,-3,3,-5,-9,-12,28,16,4
17,-5,-6,-4,1,13,13,43,4
-31,-4,-11,4,2,5,-7,-33,4
-4,-10,-2,-5,-7,-3,-21,-9,4
32,18,1,-1,6,4,-11,-18,4
1,13,3,12,6,-9,4,20,4
-4,-14,2,-3,2,4,-5,-17,4
0,1,-7,0,0,-8,5,7,4
-1,7,3,7,3,5,26,-1,4
-13,-15,1,3,0,-8,-45,9,4
14,26,0,15,4,1,-1,-12,4
-2,8,-1,-25,-10,2,16,8,4
11,-6,-2,3,-6,-3,10,9,4
-5,2,-3,2,-3,0,-69,-122,4
9,-5,5,0,6,3,-23,73,4
19,0,2,10,1,-2,86,83,4
-24,-9,-8,-1,-2,-21,-17,68,4
11,-1,-3,-7,4,-1,6,10,4
17,-14,9,0,0,8,-14,-24,4
-34,-24,2,15,6,7,-24,-6,4
-4,-21,-1,-9,2,12,10,-17,4
11,-16,-8,-4,-4,-2,14,-28,4
-6,-12,-1,-16,-14,-6,0,31,4
-14,-1,1,5,6,-2,-1,1,4
-15,-15,0,9,8,0,-3,-32,4
-9,-6,0,-10,8,3,10,19,4
16,-3,-3,-5,-3,7,17,-4,4
4,7,-10,-11,-10,-3,-11,-18,4
-4,6,-1,-13,-4,-7,-42,-42,4
7,-4,6,25,4,-2,-4,-8,4
-2,11,0,-15,-6,-12,21,5,4
14,-1,3,-1,4,-2,-68,-87,4
2,4,-3,5,-2,-8,53,105,4
-25,0,-1,1,5,-8,25,8,4
-8,-12,1,5,2,6,-8,-37,4
15,21,-6,-7,-5,2,4,-17,4
-7,-9,6,2,-3,3,-35,-44,4
17,2,2,-2,-3,2,-43,8,4
-9,-12,-8,-4,-9,-12,67,77,4
0,-20,6,28,19,4,14,42,4
-1,-3,0,-3,-7,4,-6,-45,4
-8,12,-1,-10,5,3,23,29,4
3,-21,-2,-14,-12,3,-47,-25,4
-1,-9,-4,-8,-1,-5,23,37,4
-4,7,-2,-1,-1,-1,10,-28,4
-4,2,3,10,2,1,10,-1,4
8,-12,3,14,4,-2,-15,-8,4
-3,-7,6,30,17,2,7,-7,4
10,16,-10,-49,-14,3,-9,-11,4
-1,4,-3,-6,-4,-6,12,17,4
-2,7,0,-12,-1,-2,2,-35,4
-7,12,-1,-2,-5,-5,-10,-1,4
3,-14,2,15,11,4,7,30,4
-6,-5,-4,3,-3,-4,-17,-24,4
-3,28,-3,-5,0,-5,6,-12,4
2,-24,3,13,25,8,-15,-26,4
12,5,3,11,9,9,46,80,4
-9,18,-11,-19,-19,-21,-35,-43,4
0,15,-4,-2,1,5,16,55,4
-5,6,-1,-18,-5,-3,-12,-23,4
12,2,8,23,8,8,-25,-1,4
-3,8,-5,-15,-6,4,24,25,4
0,-5,-1,4,9,-2,-4,2,4
-2,-5,-6,-5,-8,-4,-10,6,4
-13,-7,-3,-6,-3,-3,-1,-23,4
5,13,7,13,11,0,17,17,4
3,3,1,1,2,-2,-16,-18,4
1,-1,4,12,3,2,10,1,4
-10,-1,-3,-9,1,-5,-1,1,4
18,-7,3,1,-5,9,-13,-62,4
-2,20,-3,-1,1,-7,64,30,4
15,12,1,2,-4,-3,-42,-12,4
14,12,-4,1,-10,-6,3,-28,4
0,-6,1,2,0,6,-2,26,4
6,13,2,4,7,6,-1,-17,4
-3,-14,3,6,11,2,5,7,4
-1,-4,0,10,6,-4,-25,-17,4
2,7,0,-2,8,0,22,29,4
1,9,-4,-6,-2,1,-12,-3,4
-14,2,4,26,6,-6,-21,-44,4
-2,-2,1,-24,-2,0,-19,-24,4
-7,4,-10,-5,-14,-13,18,16,4
-5,3,-1,-13,-11,-6,-18,-16,4
0,12,-5,-34,-8,2,16,15,4
10,-3,1,7,-1,4,40,80,4
-22,1,3,13,11,-3,-40,-89,4
2,-6,0,8,0,2,-6,-13,4
3,-15,-1,-1,-5,3,23,7,4
-17,2,-1,9,13,-1,-12,-9,4
1,-1,0,-7,0,1,-3,20,4
0,-42,3,7,6,2,-7,8,4
13,-1,-3,-9,-11,1,36,-29,4
-3,-7,-5,-9,-1,-7,-92,-62,4
2,-25,3,3,1,6,62,108,4
-10,-7,-4,0,4,-11,3,10,4
0,0,0,-4,-10,-2,33,76,4
0,-19,3,9,-6,5,1,-46,4
13,-20,-1,10,-1,1,-6,11,4
0,7,-8,-18,-9,2,-23,-45,4
-8,-11,-3,2,-4,-1,-4,7,4
2,4,0,14,0,-1,13,-12,4
-3,-13,5,8,9,4,-5,-17,4
-2,6,-1,-24,0,-2,25,-11,4
2,26,-11,-32,-12,-10,-22,-9,4
-14,-8,-1,-3,-6,3,-8,6,4
10,5,-1,-2,3,-2,26,15,4
24,12,5,27,9,2,-2,8,4
3,7,1,8,8,1,16,55,4
-10,10,2,1,11,1,-35,-47,4
1,5,0,-7,7,10,6,24,4
-22,-2,-5,2,3,3,-11,-20,4
2,-13,0,3,-4,-2,-27,-6,4
6,-1,-2,-3,-9,-6,27,42,4
-4,23,2,5,1,-13,7,26,4
4,5,2,1,-5,-3,-4,-5,4
-8,-2,-1,-5,0,-4,-1,-20,4
5,14,0,7,-4,2,-4,-3,4
0,7,-4,-28,-13,-4,-12,5,4
-3,10,0,2,0,1,-7,-13,4
-1,17,1,2,4,0,21,0,4
4,1,0,19,16,-4,-15,12,4
-2,6,-3,-25,6,-6,0,-1,4
-6,-5,3,-7,12,-4,-9,-10,4
13,-4,-1,32,24,7,4,-21,4
8,6,-2,-41,-12,-5,22,26,4
-7,10,-7,2,-4,-4,-35,-16,4
-4,-3,6,27,4,1,-6,19,4
-3,0,4,-18,1,-2,-10,-65,4
3,5,3,7,9,1,-1,16,4
2,1,-4,2,-11,-2,-2,-22,4
3,-3,0,1,0,3,13,26,4
-3,19,0,2,-5,-2,-17,6,4
1,-2,-1,-2,-1,1,18,3,4
-13,-2,-3,-10,-12,1,-19,-19,4
-1,-10,-2,19,3,8,-5,-26,4
-10,10,-5,-28,-25,-3,-4,10,4
4,-12,-2,-4,-2,0,13,58,4
-3,12,-1,6,2,-4,25,-34,4
9,-3,4,4,3,2,1,-29,4
-9,-14,-4,-11,-3,-9,-11,95,4
9,-3,-4,6,-1,1,-19,11,4
-10,-24,5,-6,3,4,5,-43,4
-5,-20,-1,6,2,1,-3,7,4
6,-10,4,8,4,2,-12,-55,4
-10,-8,-9,5,-4,-5,15,5,4
11,-1,1,6,6,-3,-1,35,4
-1,10,-2,-10,3,-4,-1,-14,4
-3,-17,-2,3,-2,-2,3,-3,4
-16,2,2,4,4,-1,11,-13,4
-2,1,1,3,5,2,18,13,4
-1,-13,-4,0,-1,-2,-19,6,4
6,4,0,-13,-1,0,1,-26,4
-2,1,0,-6,0,5,50,70,4
4,-9,3,3,5,5,-81,-26,4
-18,27,-4,-8,-15,-9,-27,19,4
-9,-6,-5,-7,4,-6,41,31,4
9,-1,-1,-5,7,-2,27,-13,4
6,1,2,0,1,1,19,51,4
4,-5,3,12,3,4,-2,9,4
0,-12,2,21,1,5,-18,-20,4
-1,16,-10,-25,-14,-5,-20,-45,4
2,1,-2,4,-5,-1,30,23,4
7,0,2,-8,-1,-1,-10,-17,4
-7,0,1,13,7,4,7,2,4
5,-5,2,4,5,-1,-18,-2,4
-6,-10,-2,-2,-4,-7,2,-10,4
2,-5,-4,-1,-2,0,9,6,4
7,-1,1,10,3,3,16,37,4
-10,-30,-2,-13,-1,3,-8,-27,4
1,-11,-4,-2,-2,5,-13,25,4
-10,5,-4,-11,2,-9,-10,-36,4
-2,-1,-2,1,-6,-1,19,29,4
1,8,2,6,2,-1,-24,-11,4
-5,-8,-1,8,0,-2,17,14,4
3,-13,0,-18,-2,8,11,-7,4
-5,-10,1,23,4,3,-19,-31,4
7,10,-2,-14,2,-1,0,-1,4
0,2,3,1,9,-3,-13,-30,4
5,7,-2,7,-5,-4,13,36,4
-4,17,-2,-18,-3,-8,-11,-28,4
-4,6,2,12,-2,-2,-7,-14,4
-19,6,1,0,-2,-2,10,23,4
-11,3,-4,-6,0,4,16,9,4
8,1,-2,-13,-5,-4,-39,-2,4
-1,-2,3,17,11,3,24,0,4
2,25,0,-5,-7,0,-17,-55,4
-6,2,-1,-3,6,-4,-3,-1,4
5,3,-2,-1,1,0,3,50,4
-6,2,-4,-4,-5,-3,10,-5,4
4,1,-2,3,3,3,18,38,4
-7,-41,0,-10,-9,-7,5,-4,4
4,-14,-1,3,2,0,25,-3,4
8,14,0,6,-2,-5,-27,6,4
2,30,-2,2,3,-2,5,-11,4
8,-25,2,3,1,1,-2,8,4
-2,6,-4,-8,0,-1,6,-4,4
-11,12,-1,10,1,2,5,-31,4
1,27,-4,-16,-4,-5,-47,-12,4
6,38,-4,4,-1,2,-8,-9,4
-21,13,5,2,0,-1,3,-5,4
1,8,2,0,1,1,1,13,4
-2,5,-3,2,7,2,14,15,4
9,9,0,-3,0,4,18,-6,4
-12,5,-3,-7,-1,-4,-31,-46,4
11,20,1,-1,5,0,3,28,4
-1,-2,4,2,3,2,15,24,4
3,2,0,-3,-4,-1,8,20,4
3,10,0,-2,4,4,17,7,4
0,-8,0,23,5,-6,-43,7,4
0,-8,-1,-12,4,1,34,-32,4
-2,16,1,-15,-8,-1,15,28,4
7,-8,-2,0,-2,-1,-15,21,4
-3,-19,2,14,8,0,-16,-15,4
1,-10,-7,-5,-12,-7,35,52,4
-10,-24,-1,-4,2,-6,-35,-64,4
2,-11,0,-12,0,1,13,-1,4
8,5,0,-6,-3,5,24,28,4
-1,12,2,13,-1,-4,-72,-86,4
4,27,1,1,6,6,33,10,4
-7,-1,-3,1,-6,-3,3,47,4
-29,-3,-6,-12,3,0,18,-35,4
24,5,3,3,9,1,-10,3,4
-1,1,0,5,0,-5,-22,42,4
5,2,1,8,6,3,-20,-74,4
2,1,-1,3,-3,3,-10,21,4
-2,7,0,-16,0,3,24,32,4
-15,31,-5,-4,5,-10,-7,36,4
-1,21,-2,-2,4,-4,27,-28,4
7,-4,2,-3,3,-2,-4,19,4
1,-12,3,9,-4,5,0,2,4
13,-3,2,-8,1,5,-3,3,4
-13,-13,-2,3,3,2,28,21,4
-2,-4,-3,-11,-10,-4,-41,-43,4
-1,-14,0,-1,3,0,-6,7,4
-7,-13,0,12,1,-1,30,-15,4
20,4,1,-2,-3,0,-21,-1,4
5,-9,1,-6,-1,-1,42,12,4
-12,-5,-4,2,-3,-8,-40,-9,4
4,-8,0,0,-3,-3,-5,28,4
-1,-6,0,-3,2,1,-30,-30,4
1,2,-4,5,-7,-1,-2,-12,4
6,-1,4,14,6,1,23,50,4
0,-12,-4,-6,-2,0,6,-6,4
8,-3,-3,-21,-5,-2,-23,14,4
-1,-2,0,14,4,0,26,-20,4
-8,-5,-2,-3,1,-2,-24,-8,4
5,-6,3,-4,-2,2,27,-14,4
6,9,2,0,-11,-4,-8,22,4
-7,-3,-5,-23,-2,-5,-14,-29,4
-2,1,5,6,8,-4,18,-32,4
1,-4,-2,18,2,3,-26,-4,4
-6,-16,-4,2,3,-3,29,40,4
7,-3,1,5,2,-4,5,-6,4
-38,-15,-3,-20,-2,-4,0,-27,4
3,10,2,-1,2,3,-2,-19,4
-4,-8,-2,-1,2,3,-7,19,4
-7,20,-3,-4,-10,-6,-22,-11,4
7,-5,0,3,1,3,11,22,4
-6,1,-2,-3,-8,-1,4,-13,4
2,0,1,21,4,2,14,-4,4
-1,-4,1,-31,0,2,-3,-2,4
9,12,-4,8,-3,2,8,-3,4
-12,-5,-5,-13,-1,-9,-62,-3,4
5,7,1,-13,-5,0,5,-18,4
7,13,3,-4,-3,0,7,40,4
4,3,-2,19,-2,-1,-9,-16,4
21,5,-2,-5,-1,-1,21,46,4
-20,-6,-1,10,8,-2,6,-38,4
17,8,-3,-7,5,-1,1,3,4
1,-3,-5,-3,4,-2,-17,3,4
-1,10,5,8,5,4,9,-9,4
3,8,2,-6,-1,0,21,24,4
-3,13,0,9,1,-4,-46,-27,4
1,-4,-2,-2,3,1,35,-15,4
-7,-7,-1,7,5,-7,-46,-5,4
-3,-1,-3,-6,0,-5,2,12,4
-3,9,-3,4,2,3,16,20,4
2,-6,0,-1,0,4,8,28,4
-4,6,0,-2,-2,2,-3,-35,4
0,-51,3,-9,0,3,0,-25,4
15,-19,0,6,-2,-2,-20,-35,4
5,7,-8,-29,-10,0,22,94,4
-5,10,-3,-7,-2,2,3,-22,4
-7,17,-1,9,5,-4,-5,-3,4
3,17,3,-1,2,3,5,16,4
-17,7,6,9,3,0,-22,-96,4
5,-8,-1,12,1,2,-17,31,4
-7,23,-7,-10,-5,-11,10,32,4
-15,1,0,-2,0,-3,-10,-45,4
2,10,2,9,3,-1,3,11,4
-5,-1,0,-13,-6,1,36,7,4
6,18,1,10,3,2,-47,-3,4
-8,2,0,-9,0,0,11,1,4
10,1,-1,0,-6,0,4,24,4
5,-2,2,3,0,-2,6,-27,4
0,-7,-2,-13,-2,1,-2,21,4
-8,-6,-6,-5,-7,-7,14,30,4
4,-9,3,14,0,-1,-4,-9,4
1,-13,0,-14,5,2,-12,3,4
7,11,-1,-7,-5,1,26,8,4
-7,15,-1,-1,-2,-5,-36,-11,4
-2,0,0,-4,5,-2,0,-36,4
-1,5,-4,9,-2,-5,23,9,4
6,10,0,5,5,1,-32,-14,4
-8,-11,4,4,7,0,8,21,4
6,-2,-4,-15,-5,-1,-2,7,4
8,9,3,6,7,0,11,54,4
-14,4,-1,18,4,2,-33,-114,4
-8,10,-3,-14,-3,0,21,49,4
5,-4,-2,17,-5,-5,-43,4,4
-6,-3,-8,-28,1,-4,40,48,4
2,5,-3,-5,-3,-5,-17,40,4
10,-6,3,13,4,-2,-3,-20,4
0,-9,2,16,10,5,11,-3,4
-2,-2,4,-1,-4,2,-10,-26,4
2,1,2,-7,-10,6,33,5,4
2,-6,-4,-8,4,1,27,25,4
-15,-14,-5,-7,-8,-7,-44,-52,4
-3,-14,-6,4,0,-6,22,-3,4
2,-7,1,4,7,0,10,18,4
2,-13,1,6,6,4,-2,-22,4
5,-5,6,1,1,4,10,21,4
-1,4,-1,4,-3,-4,-20,-15,4
2,-4,2,-4,-2,0,1,-6,4
-2,-2,-2,0,-4,2,4,-6,4
2,-4,-2,-5,1,-5,14,34,4
-9,-8,-6,8,-3,-2,-34,-40,4
-5,-4,-1,7,1,-3,1,0,4
1,-3,-1,3,0,1,-5,-10,4
1,-5,4,-4,5,3,20,-1,4
7,13,-5,-19,-8,-2,3,30,4
-1,-30,2,5,1,0,-3,6,4
3,-61,0,-6,-11,-1,0,15,4
6,-2,0,1,-6,5,3,-32,4
-7,11,-3,1,5,-5,10,44,4
-2,49,1,19,4,1,8,-2,4
1,43,-3,-8,-3,-1,-15,1,4
20,-11,-2,-17,-7,1,-1,-5,4
-2,11,7,8,5,1,-19,-22,4
-13,-5,-7,-2,-4,-6,10,-3,4
-6,-4,3,10,7,3,5,-15,4
-1,10,-5,-6,-9,-10,-20,48,4
0,2,3,5,1,0,-26,-15,4
12,-12,3,-14,-4,-2,30,-19,4
-5,7,-4,2,6,2,7,60,4
-14,6,-3,4,5,-6,-1,-42,4
-5,-14,0,-26,-8,3,-26,-41,4
6,-2,6,22,19,2,12,40,4
0,19,-8,-24,-22,-3,5,1,4
-3,-6,-6,-19,-10,4,16,22,4
4,-16,8,40,9,4,16,-3,4
-7,0,-12,-37,-12,-4,-42,-7,4
9,9,6,9,4,4,14,-16,4
-7,-9,-3,9,10,1,-12,18,4
-13,0,-2,-4,-3,-3,5,-20,4
0,-1,2,3,3,-3,-42,-43,4
1,-1,-2,9,6,-2,26,34,4
12,7,0,-13,-2,-4,-37,-23,4
0,-5,3,7,7,4,45,59,4
-16,5,1,2,4,-6,-11,-28,4
-6,-9,0,-2,-1,-8,-31,-39,4
-3,9,-2,12,11,-4,59,38,4
4,6,-4,-12,-6,-1,-45,-37,4
-1,2,-3,-7,1,7,35,55,4
2,5,2,-10,0,8,-1,-1,4
-7,-2,1,7,2,4,-5,11,4
0,-4,-1,16,1,-2,10,-10,4
-6,2,-4,-3,-6,-5,2,-8,4
-1,0,-4,-22,-7,0,-6,-8,4
-5,-4,-1,0,-1,-5,-11,-8,4
4,2,-3,-12,-3,-6,10,-11,4
-7,-6,5,19,7,0,-10,0,4
16,8,1,8,15,1,12,29,4
-10,13,-2,-7,-5,-4,-21,-67,4
2,-10,6,15,6,7,5,46,4
-4,2,-9,-35,-12,0,-32,-16,4
-9,5,-1,23,8,1,46,48,4
14,5,-2,-21,-11,0,-22,-32,4
0,-4,3,14,4,-3,-19,-96,4
-1,10,-3,-1,14,-10,13,61,4
-4,6,0,-2,6,1,-2,-41,4
-19,1,4,8,4,3,13,31,4
5,3,-2,13,-5,-4,-5,5,4
5,-3,3,-15,-10,5,-6,-27,4
-12,-3,-1,19,-7,-5,-9,-21,4
-5,-1,-2,-3,2,-2,12,19,4
-1,-3,-3,-4,-2,1,-7,-13,4
2,7,-7,-31,-10,-2,28,-3,4
0,8,0,12,3,-7,-57,4,4
4,-1,2,-22,-7,5,-1,-3,4
-18,-1,-3,2,0,-3,2,-30,4
-1,4,0,14,1,3,19,8,4
5,-14,3,0,0,3,13,32,4
1,6,2,16,13,0,-3,-8,4
-9,2,0,-16,-3,-2,-8,-77,4
3,-5,-3,-4,-12,-2,11,76,4
1,2,1,-6,1,0,-8,-23,4
17,-5,1,1,1,6,37,56,4
-3,-9,0,12,3,-7,-2,16,4
-7,-8,-7,-11,0,-7,-23,-30,4
4,6,2,4,-1,3,-5,-8,4
2,-5,0,0,0,-1,4,16,4
-6,9,-3,-19,-8,1,15,26,4
11,-8,1,13,7,1,-7,-18,4
-3,-4,-3,-10,2,-3,2,29,4
-5,-2,0,14,6,-5,-5,-31,4
6,5,-4,-18,-3,-2,11,13,4
0,3,7,13,2,2,-9,-9,4
7,2,-1,-4,1,1,-11,-34,4
-2,-14,-3,3,-3,1,-1,-8,4
8,-5,3,13,4,4,2,51,4
4,13,0,-9,-7,0,7,-48,4
-2,-6,-1,-2,-4,-1,-25,-13,4
-16,-14,-4,-4,-1,-5,-17,4,4
12,-2,0,-4,6,6,5,59,4
-8,-9,1,18,5,3,-2,-14,4
-5,5,-1,-8,-6,1,27,2,4
-8,0,-4,-3,0,-4,-1,-44,4
0,-9,0,-8,-1,-1,-8,37,4
13,6,4,6,9,-3,7,16,4
-5,-3,-4,0,-5,-7,-7,-39,4
5,5,3,13,3,0,0,9,4
7,6,-4,-38,-11,-1,15,41,4
-6,-1,-5,21,-4,-4,3,-56,4
4,6,4,3,5,-5,-18,34,4
1,6,-6,-13,-12,-5,-13,-3,4
2,-6,0,6,5,2,41,-21,4
2,11,8,-2,-5,-3,-18,47,4
-4,-1,-10,-15,-3,0,2,-13,4
3,-19,2,10,8,1,0,5,4
5,15,0,0,-7,-6,-28,-55,4
-4,-3,2,1,-3,2,10,-28,4
2,0,2,8,4,1,24,18,4
15,-24,6,-11,-4,0,-6,19,4
-6,0,-2,20,2,2,-27,-50,4
15,18,-10,-10,0,-4,-26,-39,4
1,0,-3,-1,-3,-3,2,-28,4
-13,4,-3,0,-1,0,-3,-23,4
-1,-2,7,21,13,3,1,27,4
-2,3,5,-26,6,4,45,44,4
5,12,-3,-7,-5,-1,-7,26,4
-3,5,3,16,7,-2,9,-66,4
-7,11,-3,-19,-7,0,1,2,4
8,-2,-1,-6,1,4,26,55,4
-13,-4,-3,9,-5,-3,-6,-18,4
-2,6,-4,-22,-3,-1,-3,30,4
-7,-5,0,5,0,-5,-10,-13,4
-1,0,-2,10,7,1,-9,7,4
2,3,7,8,6,-1,-1,4,4
-7,3,-6,-10,0,-5,8,-2,4
3,1,-5,-3,0,-3,-10,34,4
-9,9,-2,1,-5,-1,-23,-77,4
-1,-1,1,2,0,2,26,30,4
-13,5,-4,-1,0,1,-44,-11,4
0,-2,0,9,4,3,39,9,4
2,-7,0,-2,-5,3,-24,43,4
-7,2,15,2,5,3,53,41,4
-7,11,-17,-6,1,-7,5,30,4
-9,2,7,12,-2,1,-22,-9,4
2,-2,-2,-23,0,-2,14,21,4
-21,-2,-10,-22,-4,1,-7,-51,4
22,-3,23,3,-2,1,3,-4,4
1,-3,-5,-10,-4,-2,-21,-8,4
-3,-3,3,22,13,0,2,-27,4
4,3,1,-17,0,-5,-28,20,4
-6,14,-7,-9,-6,5,22,32,4
5,5,-1,-3,3,-3,0,-3,4
5,-22,4,11,-2,-5,-7,6,4
0,-23,-2,1,5,0,-3,-24,4
0,-22,1,13,9,5,6,33,4
5,-12,-3,-9,-7,-2,6,-1,4
-8,-9,-4,1,-3,-6,-3,2,4
2,-8,-1,6,1,3,-12,-72,4
3,-4,-1,1,-5,-7,-25,50,4
-1,-8,-1,-2,-2,5,19,-10,4
-13,-12,4,34,8,-4,-9,-7,4
5,10,-11,-33,-7,0,8,34,4
5,2,0,-4,-5,0,10,-11,4
2,-4,4,1,8,2,16,27,4
0,6,5,11,-11,-3,-25,-45,4
-8,6,-2,-11,-2,0,-17,-23,4
-5,8,-13,-6,-3,-5,14,-10,4
17,11,-6,-7,-2,-6,-24,-17,4
3,-3,8,8,6,10,14,44,4
-4,11,2,12,7,2,1,0,4
1,0,-2,-16,-8,-4,3,-36,4
-4,0,1,1,-3,0,4,9,4
6,-2,-1,0,7,0,-9,-11,4
4,8,-6,-1,-6,-3,-3,1,4
-4,-11,1,1,2,2,38,37,4
-22,-16,-2,2,5,-1,-38,19,4
-2,11,-5,-19,-3,-5,-22,7,4
-1,-12,2,24,8,-2,1,7,4
4,1,8,9,14,7,28,-6,4
-7,17,-9,-25,-20,-5,-20,-19,4
-6,0,-8,1,3,0,-8,-30,4
6,11,0,2,-6,-3,-6,20,4
-1,11,0,3,-2,-6,-60,48,4
12,-1,6,7,8,5,47,21,4
-5,3,-4,-8,0,1,52,45,4
7,2,3,5,5,-9,-79,-47,4
-1,-3,-3,-3,-5,6,48,33,4
-14,6,9,17,5,-5,-55,-82,4
0,4,-18,-28,-11,-3,-8,6,4
1,5,14,23,13,5,23,22,4
-1,7,-10,-3,-1,-5,-11,-3,4
12,12,-3,-7,-2,0,12,12,4
-2,-11,3,20,0,-2,5,-5,4
-5,-6,-1,-7,-1,0,3,-1,4
6,8,2,8,7,-2,-9,-31,4
-4,0,-2,0,0,-2,24,0,4
11,19,1,-7,-2,-1,-34,-23,4
-1,-15,-4,3,-3,0,44,39,4
2,5,5,2,-5,-3,-42,-25,4
3,-4,-3,-4,3,1,12,-30,4
-4,5,1,-3,4,1,-9,-25,4
7,-18,-2,1,-2,-8,-21,17,4
-2,12,0,-3,1,0,-11,-32,4
-6,-8,-3,6,3,3,21,17,4
-11,-5,-1,4,8,-3,-8,-30,4
-3,-7,-3,-17,-11,1,12,-2,4
-7,-9,4,6,0,3,9,3,4
4,-2,-4,-8,0,-4,-20,19,4
1,4,6,15,8,0,2,-29,4
-9,-14,-6,0,3,2,-6,11,4
1,-7,-7,-9,-15,-7,46,3,4
0,7,17,2,8,1,-40,-31,4
-11,-17,-16,-5,-11,1,50,83,4
4,18,5,-5,3,-1,-22,-69,4
-4,3,-5,-3,2,2,-17,-14,4
-2,-7,0,4,-9,-6,16,-42,4
-6,-5,2,-4,0,-4,8,65,4
14,11,2,12,6,1,7,40,4
-9,-9,1,6,4,0,-1,-5,4
-5,4,-7,-10,-5,-1,-11,-14,4
18,4,4,-6,0,0,-8,-5,4
-7,14,-4,-1,-2,1,19,-4,4
-2,0,3,1,2,3,-8,-11,4
0,-11,-1,1,0,2,-5,1,4
2,0,-4,-20,-5,3,3,7,4
-3,0,-5,-7,-3,-2,15,16,4
2,-9,-1,7,1,2,16,18,4
0,-27,0,4,5,-1,26,35,4
-7,-4,-1,18,3,-6,-46,-98,4
-6,16,-6,-21,-9,-11,-39,-47,4
-9,-7,-1,-13,-6,-1,13,43,4
7,-10,-3,6,6,1,24,31,4
6,-4,8,9,-2,1,5,8,4
1,-19,-4,17,11,2,3,-2,4
8,6,2,-2,-2,2,-16,-4,4
-7,4,2,-8,-3,-3,-14,8,4
-1,-9,-19,-15,-3,-1,20,-2,4
-8,12,-2,2,0,-3,-8,1,4
8,-3,2,1,4,-3,-6,0,4
1,5,-1,2,-2,5,2,15,4
11,7,5,3,4,1,0,4,4
-3,-4,-2,-9,-4,4,15,-12,4
4,0,0,2,-5,-1,-27,-46,4
-4,17,-7,0,-2,-6,-6,21,4
2,7,5,-1,0,1,15,59,4
-9,-15,1,13,6,3,0,-14,4
0,0,1,2,1,-1,22,6,4
-3,-5,4,18,13,2,-32,-69,4
-8,23,-2,-41,-11,0,63,82,4
6,0,-6,-10,-9,-1,13,15,4
-2,-1,-2,-6,3,2,-9,29,4
-10,6,-1,1,-1,-6,-20,-16,4
-5,7,6,11,8,-6,-32,-29,4
15,-7,1,13,2,0,7,-9,4
1,4,-2,-8,4,2,21,-1,4
3,-2,-7,-28,-10,-2,1,18,4
6,-3,3,6,2,1,-19,-9,4
-4,17,4,2,1,-2,-1,20,4
6,15,-5,2,1,-3,4,-34,4
4,-2,2,13,-3,-1,-4,18,4
-13,3,3,1,1,1,0,-21,4
21,15,5,-22,-6,2,9,53,4
-24,-6,-17,5,-1,-3,-6,-60,4
-2,2,-5,-2,1,4,44,65,4
-8,-3,3,7,-4,-9,-67,-93,4
-3,4,-1,10,12,6,20,7,4
-2,10,2,13,2,-3,-58,29,4
3,13,-10,-15,-7,-9,47,27,4
-6,-6,2,11,-1,-2,7,35,4
-9,11,5,2,3,1,15,22,4
8,7,0,-21,-4,3,0,8,4
-5,-6,4,6,0,2,-25,-35,4
9,11,1,-1,1,7,28,21,4
-9,1,-4,7,4,0,1,-29,4
4,-3,3,6,5,-6,3,9,4
16,11,0,-1,3,6,-3,-9,4
-6,-7,-3,-1,-1,-1,4,-2,4
-5,9,-3,-3,-2,-2,-10,-7,4
7,12,3,-2,1,-4,-4,-14,4
5,13,-3,-4,2,1,13,11,4
-8,-5,-5,0,4,-2,-7,-20,4
3,3,-1,0,-1,-3,-4,1,4
-2,-5,2,1,-2,-3,-20,-6,4
-7,5,-1,-3,-1,-5,-16,-8,4
6,-30,-2,35,4,3,21,34,4
0,0,-1,-20,-14,-2,-58,-79,4
-7,11,-17,-29,-3,-10,44,7,4
12,5,-1,-3,-6,-2,-6,73,4
-3,8,1,-11,-5,1,-7,-32,4
-24,-9,-2,5,2,-2,-2,-18,4
5,-9,9,21,11,12,0,-6,4
-4,-6,4,-8,-7,-3,-11,-20,4
12,5,-6,0,-3,4,28,36,4
2,-1,15,38,10,-2,-27,8,4
7,9,1,-27,-3,3,47,-5,4
-7,-13,-3,12,2,-7,-88,-60,4
-22,8,-4,-10,1,-7,50,64,4
3,-4,-6,-1,-2,0,11,-14,4
-8,-2,0,11,-1,4,-9,-2,4
6,-31,2,0,3,7,35,-7,4
12,10,-3,-10,-3,-6,-49,-32,4
-6,-25,-6,-9,0,-3,1,0,4
-1,-18,2,7,1,5,14,23,4
5,-4,8,4,6,4,-9,11,4
-11,-3,-5,-17,-9,-1,-20,-19,4
2,-6,-3,1,-4,2,46,15,4
-2,-10,3,1,1,-7,-20,-10,4
-5,-4,-3,-13,-4,-1,-8,17,4
3,-3,10,13,9,3,16,-11,4
6,-9,-7,0,-2,-5,-26,1,4
-5,7,-1,-5,-19,-1,5,26,4
-10,-4,-1,-15,7,-3,-10,-27,4
8,-3,7,7,6,0,29,-43,4
5,-6,5,-1,0,2,-1,84,4
0,4,3,5,2,-5,-27,-43,4
0,-4,-6,10,-2,1,19,7,4
9,-4,13,7,1,9,6,14,4
10,22,-3,-15,3,-6,4,-13,4
-19,-11,-1,5,2,-5,-59,-8,4
0,3,1,-4,-4,-2,29,5,4
-1,-5,-6,-1,-1,-2,-14,18,4
5,3,0,2,2,2,38,1,4
-7,3,2,-3,0,3,46,12,4
-16,10,-9,4,-1,-13,-32,57,4
-5,-6,-3,-13,0,3,-24,-17,4
5,-2,5,7,4,2,-12,-9,4
-5,4,-9,-10,-1,8,19,11,4
-1,3,-2,-10,-10,2,14,-43,4
-18,-12,-8,14,2,-2,-16,-39,4
-17,8,-4,3,3,-4,-7,0,4
11,0,1,-6,-1,-5,-7,-29,4
-3,14,-4,-15,-8,4,23,9,4
-19,13,-2,-10,-2,-3,-36,-33,4
6,-4,-1,13,6,6,15,19,4
-3,5,-3,2,-1,-5,13,3,4
0,-6,4,39,9,1,-7,-23,4
-1,18,-7,-36,-11,-9,18,38,4
-2,-11,1,-5,-5,-1,-14,-2,4
8,17,3,-2,3,4,1,-21,4
12,-6,3,2,15,6,10,66,4
-9,3,6,8,-11,0,-50,-101,4
6,-8,-5,-8,4,-2,47,67,4
-14,-6,2,6,-1,-5,-48,11,4
0,18,-3,-4,2,-11,73,17,4
20,-4,-1,-1,4,4,-17,33,4
-9,-3,2,-3,-6,-1,-21,-6,4
28,-18,10,15,9,18,9,-32,4
-11,14,-4,-6,-1,-4,16,-57,4
2,3,-2,17,9,-7,50,96,4
2,-1,-9,-33,-20,-6,-30,-28,4
-13,0,1,4,8,6,-6,21,4
-3,-9,-6,-10,-17,2,-26,-44,4
-3,-3,3,25,7,4,12,1,4
-7,21,-4,-50,-10,-8,-15,12,4
-1,4,-9,3,-1,-5,-11,-18,4
2,13,5,3,7,3,-1,3,4
1,-1,0,10,11,-3,-7,-4,4
3,-10,8,21,5,-2,-1,6,4
-5,7,-3,-7,4,-9,31,7,4
14,19,-2,-5,-2,3,-23,5,4
4,-19,7,-9,-3,1,5,29,4
-3,7,-1,6,2,-3,-20,-58,4
6,3,-3,-3,-2,-3,30,18,4
-9,-10,0,8,6,0,-31,-17,4
4,-1,-8,-22,-6,-4,-19,46,4
-5,1,-6,6,2,0,6,-43,4
-5,-3,1,8,69,-4,-46,40,4
7,-5,1,-1,57,3,15,5,4
6,11,-2,-13,14,-1,31,7,4
5,1,3,12,-1,5,9,72,4
-2,18,-5,-3,-57,-15,-59,-48,4
1,-14,2,4,-38,-1,21,71,4
-5,-10,-6,-19,-26,1,20,9,4
7,-19,2,5,-31,2,30,27,4
1,-7,-1,9,-18,3,13,5,4
-3,11,5,-19,-5,-4,-4,-24,4
-2,-3,-8,1,-20,-2,-21,-13,4
-15,-4,-1,2,8,1,-26,-71,4
-1,9,3,-1,-6,-6,11,13,4
-5,-16,3,8,-1,-5,-14,13,4
10,-5,-3,5,0,0,-22,-21,4
-5,4,4,2,9,2,5,-28,4
3,-24,-14,-12,3,1,28,38,4
3,-3,-5,-6,-16,-4,-15,-67,4
-1,-92,0,3,1,1,-7,6,4
4,-13,-2,8,1,-1,-37,11,4
-4,4,3,5,-1,2,19,16,4
-4,25,-3,-8,-8,-2,-6,-30,4
20,55,8,6,5,0,53,47,4
-18,31,-7,-10,5,-11,-67,-64,4
-10,-29,0,-2,-5,0,-3,15,4
-9,-9,-5,-4,-11,0,-31,-39,4
-6,11,5,19,10,4,30,-16,4
2,6,0,-1,-8,2,-5,21,4
7,24,0,5,-3,2,-3,-21,4
0,9,0,9,2,-1,12,21,4
4,17,-5,-21,-3,0,3,-10,4
-3,-1,0,0,-1,4,16,-1,4
-11,-24,0,6,7,8,27,21,4
-17,-20,-6,22,13,-2,-27,12,4
7,4,-5,-34,-5,-9,7,37,4
0,13,-6,-14,-4,-4,63,41,4
26,-3,12,-4,-6,-4,-47,-62,4
10,8,8,13,4,10,14,2,4
-6,24,-17,4,1,-7,-26,-58,4
3,1,5,18,12,4,31,37,4
-5,12,0,-14,-3,-2,18,1,4
-2,6,6,4,2,-1,-6,-6,4
-3,10,0,0,-2,0,-31,-27,4
5,-1,1,-8,-2,-3,9,8,4
-12,-1,-4,4,1,1,13,26,4
-13,-1,-1,-5,2,0,-9,-5,4
6,1,4,3,5,6,22,46,4
-3,3,-2,6,6,-6,-47,-13,4
5,1,2,17,-1,-2,52,56,4
-6,-8,-7,-32,-1,-4,-12,-12,4
-11,9,0,2,-4,-4,-20,-5,4
0,-4,-1,1,3,1,21,30,4
3,8,2,-8,-4,-4,-13,6,4
9,5,-1,-4,-6,5,43,36,4
-15,-7,-16,13,3,-6,-73,-73,4
4,-6,-6,-10,-11,-2,10,17,4
6,0,1,-15,0,-1,3,5,4
-7,-5,-3,19,-5,-4,4,13,4
1,2,9,-2,3,4,-5,-8,4
-2,-5,-1,-4,1,0,8,-8,4
-1,4,-6,6,-1,0,-11,-11,4
-1,-1,5,10,0,4,2,-7,4
-2,2,-17,-21,1,-1,17,7,4
0,-12,5,42,7,1,-21,7,4
9,0,-9,-44,-13,1,-22,-37,4
-3,12,-2,-17,-3,-13,-24,-18,4
2,2,8,6,-6,1,57,85,4
-18,-2,-5,-4,10,-8,-10,-48,4
14,0,4,5,7,2,-5,-5,4
23,0,3,3,2,-2,-12,11,4
5,-10,-2,4,2,4,24,9,4
4,1,2,-7,-1,2,16,3,4
-8,-2,-1,10,6,-4,6,16,4
-3,-2,-3,-8,-4,3,-20,0,4
12,8,10,10,6,6,-10,-21,4
-9,6,-3,-13,-11,-14,8,-7,4
-9,-3,-4,-6,1,2,-6,-28,4
3,3,14,44,12,4,29,11,4
-8,3,-14,-37,-11,-7,-15,-23,4
8,9,0,-17,-14,1,-16,-5,4
-2,1,0,-5,-3,-2,25,56,4
-3,6,-2,-2,3,-7,-17,-25,4
-3,-15,4,15,4,-4,-26,-3,4
6,-9,-6,13,5,1,5,7,4
1,0,6,-9,0,2,19,24,4
2,-7,-8,-5,-2,-3,-33,-18,4
-1,7,7,10,5,-2,38,1,4
-5,10,-1,-7,-1,1,-14,-63,4
0,-5,-2,13,-3,-2,-37,29,4
-12,-4,-5,-9,-5,3,34,-38,4
-25,12,2,2,3,-9,-65,-28,4
17,4,-1,5,-3,4,8,31,4
-2,9,7,11,0,3,26,-10,4
12,1,0,3,8,1,7,41,4
2,20,18,-18,-11,-2,7,25,4
-5,19,-2,-7,4,-1,0,-13,4
-19,9,-5,-12,-4,-4,-14,-33,4
13,-9,-10,-3,-2,-2,0,14,4
6,-11,0,13,6,-1,11,-9,4
6,-19,4,5,5,9,18,83,4
-24,-7,2,1,-8,-9,-29,-97,4
13,-10,-7,-9,2,-1,15,25,4
1,-20,-3,6,1,0,-17,-12,4
-4,12,0,-6,-1,2,-32,-39,4
-3,26,-8,-1,-4,-3,46,53,4
-5,2,5,12,-6,6,11,11,4
4,-3,2,11,7,4,15,-1,4
6,-17,2,-1,-10,0,-49,-50,4
5,-28,5,9,8,2,21,47,4
-9,20,-4,-30,-3,-4,-34,-85,4
5,8,9,-9,0,0,14,41,4
-3,-21,0,2,-4,2,10,10,4
14,5,5,14,8,1,-20,-44,4
-9,-1,-9,-17,-10,-9,13,57,4
-1,-15,-2,10,7,-3,10,18,4
4,27,5,-3,-6,-1,-2,-4,4
8,4,-11,12,2,-5,-14,-4,4
-20,6,2,-11,1,-1,34,38,4
1,-4,-5,-4,-2,-1,-25,-40,4
4,-16,5,4,5,-5,0,14,4
8,2,-6,-7,-1,0,-1,-6,4
-14,-7,-2,26,5,-2,-15,-13,4
-2,-15,-18,-35,-7,0,-8,-13,4
0,-5,-2,0,7,-1,31,43,4
-2,9,0,-2,-4,-1,-29,-54,4
1,-1,5,2,-1,-5,-43,-75,4
1,10,1,6,-3,2,14,0,4
-9,7,-1,-17,-7,-9,1,25,4
2,5,-10,-8,-4,6,-38,0,4
5,-7,0,-2,3,1,35,50,4
-4,10,5,7,-6,1,-7,-66,4
-4,-1,-7,0,7,-3,0,-5,4
-4,-13,4,0,3,2,14,12,4
1,-4,12,-8,-8,-5,-2,17,4
-6,7,0,11,2,-5,-39,-18,4
7,13,4,8,7,5,20,0,4
-6,-6,-2,-3,3,2,-3,10,4
-1,3,-11,-20,-3,0,11,-15,4
-3,12,-1,2,7,1,24,30,4
-2,4,1,-7,-7,-2,-13,-34,4
0,9,5,1,0,-2,-8,29,4
4,2,-1,7,1,1,10,9,4
-1,-5,-1,12,-1,1,17,7,4
-16,-1,-5,-11,-2,-4,-20,-25,4
6,-4,3,3,-2,-5,-22,-25,4
2,-4,-5,7,5,6,18,58,4
-19,13,-2,-5,7,-4,-20,-66,4
1,9,4,19,-1,1,-3,12,4
1,0,0,-6,-4,1,9,6,4
7,2,1,1,0,0,-9,29,4
-4,2,-2,0,0,-6,-18,-32,4
7,-9,2,-1,1,0,29,4,4
-12,-2,-6,0,2,-7,-2,-4,4
-9,6,-1,-21,-5,2,-9,-18,4
8,9,0,6,-1,3,12,37,4
-1,-1,-3,6,4,2,-4,-9,4
9,-9,2,8,5,5,26,56,4
-8,1,-5,-5,0,-3,-6,-106,4
2,-1,-3,-9,-8,-4,-19,56,4
2,-5,-1,3,2,4,1,35,4
5,-8,-3,4,5,1,16,-3,4
-5,2,5,6,3,1,10,13,4
4,-23,-5,-1,-3,1,22,5,4
-4,-11,-9,-14,-3,-2,-43,-49,4
-1,-8,4,1,-6,3,9,13,4
9,1,3,2,0,-3,-10,25,4
-2,-19,5,11,-3,0,-5,-42,4
-1,-19,-1,7,3,-1,35,35,4
-16,-18,-6,3,2,-2,-1,-9,4
0,-7,-1,8,1,1,-7,-21,4
-5,-4,0,-9,-4,5,13,35,4
17,7,1,-5,-1,-6,-4,2,4
5,10,7,-11,-6,0,-17,14,4
10,-10,-5,20,3,2,37,25,4
-9,10,0,-15,-4,-11,-35,29,4
1,-4,-2,-1,0,1,-7,-30,4
-2,1,-14,-9,-3,-3,-4,-6,4
6,-9,22,15,10,4,-5,13,4
8,-7,2,1,2,4,12,-4,4
-4,-4,0,1,-2,-1,13,42,4
-6,9,-1,-6,1,-5,-38,-52,4
-7,0,-2,1,-3,1,21,-41,4
1,6,-2,-2,-2,-2,-14,-46,4
-4,3,2,-1,-3,-3,-15,-6,4
-3,3,4,2,3,9,-29,-31,4
-14,-4,-7,-11,-6,-10,34,90,4
1,-1,-9,-8,2,0,34,-12,4
-2,6,5,6,5,-3,2,53,4
13,-8,22,21,6,4,0,-6,4
-6,7,-42,-26,-3,-5,-32,-47,4
6,1,6,-5,-7,3,11,19,4
-2,-3,-9,-4,6,-1,12,27,4
-1,5,8,-2,-3,-5,10,-23,4
1,13,9,5,0,-2,-7,-9,4
-1,-4,3,6,2,-4,-28,25,4
-6,0,0,1,-2,3,-1,-52,4
2,15,-12,-12,-2,-3,17,29,4
-12,-4,6,0,-1,2,-27,-8,4
7,5,-4,2,3,3,8,12,4
-1,15,13,-7,-5,-4,-5,-12,4
-4,-2,-28,8,-6,-3,7,13,4
6,2,8,-1,-1,2,14,14,4
-2,8,-5,1,4,0,19,44,4
-6,-7,-2,5,3,-1,-37,13,4
21,7,2,-4,5,3,69,-8,4
-6,9,-8,-4,-6,-13,-54,61,4
-3,-7,-1,-2,-2,-3,-7,-19,4
11,5,8,25,21,10,21,-11,4
-7,20,-3,-15,1,-2,4,10,4
4,-6,2,-14,1,5,15,-11,4
5,1,4,5,-2,-3,-6,-9,4
-7,-2,-4,-23,-15,-4,11,19,4
-5,-16,1,39,7,-3,-17,-11,4
12,4,5,10,-9,3,15,-16,4
1,10,-1,-12,-10,-2,1,4,4
-4,-12,-2,-1,0,0,-6,-33,4
-7,-6,-16,-8,1,-7,2,-8,4
3,-14,1,-5,-3,2,-25,-11,4
-6,-3,1,3,5,-2,32,12,4
6,16,-4,-1,-1,2,15,7,4
2,-14,7,1,4,-1,-52,-30,4
-3,5,0,4,3,-1,20,29,4
0,2,-1,1,2,-6,-11,28,4
6,-9,-3,0,-1,-3,-4,-62,4
4,9,2,-7,-4,-2,2,12,4
3,3,17,3,7,5,0,-17,4
1,-24,-14,-1,5,2,-1,29,4
-3,-10,10,3,8,0,-4,-9,4
-9,3,-12,-16,-13,-3,7,23,4
5,0,14,5,0,-3,-6,-20,4
-7,1,10,-9,5,1,11,3,4
-1,2,-16,-21,-4,0,4,-4,4
6,-14,5,-4,-1,-2,-28,-6,4
-6,-5,-9,-6,-1,-1,-2,0,4
0,-21,0,20,7,1,15,16,4
14,-3,0,-10,-8,3,-6,-3,4
-4,0,4,0,0,3,8,-44,4
2,-8,-6,-2,-5,-9,-7,7,4
0,-7,2,4,3,2,-18,-1,4
-6,-13,-2,6,-3,0,-5,41,4
-8,0,-5,-7,0,-5,38,53,4
13,-11,5,6,8,4,32,30,4
1,-15,-4,-2,0,2,-21,-57,4
-10,-7,-4,15,1,-8,-17,36,4
-6,-7,3,-16,-9,-2,-20,-22,4
-14,-2,-22,-6,-1,-2,9,14,4
-2,8,0,0,-3,4,7,-17,4
6,-7,2,8,1,2,19,1,4
5,7,5,18,2,-3,5,16,4
-4,-1,0,-30,-7,-5,-15,-31,4
1,0,3,26,3,0,6,-8,4
-5,18,-5,-23,-13,-6,-6,-25,4
-14,-11,0,0,1,0,-32,-15,4
0,-5,4,6,1,5,66,32,4
9,12,4,8,2,-6,-32,-53,4
-2,-1,9,2,-2,4,-7,21,4
0,11,-3,5,4,-1,84,68,4
-3,-7,-3,3,-3,-1,-112,-101,4
-8,15,-3,-6,-5,-15,66,81,4
1,0,2,5,3,-2,-24,-27,4
13,2,4,-3,2,4,-30,-28,4
-2,-6,0,12,4,5,25,-4,4
-8,12,-9,-6,-8,-8,-45,-44,4
-19,-8,-4,-1,1,0,0,-1,4
7,-3,2,10,2,2,6,16,4
1,10,-3,-27,-6,-1,-4,-4,4
4,-6,-1,-1,2,9,-58,-53,4
-9,9,-4,-3,-2,-9,70,53,4
-10,1,22,25,7,-4,-7,-10,4
0,-9,-58,-15,-8,-5,-11,-11,4
-3,-1,-12,-13,-4,3,6,17,4
7,19,8,-9,-5,1,-17,-33,4
1,-8,-1,10,1,-2,-3,2,4
-1,4,15,29,24,1,-15,-17,4
2,3,-1,-26,-4,2,33,53,4
2,-11,-8,14,7,-2,3,-21,4
0,0,-3,-14,-2,1,11,62,4
-4,29,9,8,0,-4,13,5,4
-1,-6,0,5,3,-2,-35,-97,4
-2,-1,7,3,-3,4,3,20,4
-3,17,-6,-18,-5,1,-16,-14,4
8,10,8,5,-1,0,6,27,4
-6,-9,6,5,3,-2,33,38,4
-18,0,-12,-4,7,-2,-19,-20,4
2,6,-13,-23,-13,-5,-7,-24,4
3,-1,6,5,-1,-2,-38,0,4
-13,13,2,-8,2,-2,35,33,4
12,-12,4,8,-19,6,37,36,4
-8,5,-7,-5,-12,-4,-40,-85,4
-3,18,6,-8,-4,-1,9,-12,4
3,-9,1,4,6,1,-43,-7,4
-7,-11,-1,11,11,-5,14,25,4
13,-1,4,3,12,1,-4,-17,4
-7,6,13,-4,-5,0,16,36,4
8,-10,-24,-15,0,2,17,-34,4
2,-6,18,16,18,5,-34,-15,4
-6,1,-21,4,-4,-2,19,16,4
-1,-1,-7,-9,-5,-2,1,5,4
-4,-6,4,8,-3,3,4,22,4
7,1,-3,-7,-1,-1,-1,-3,4
2,2,8,10,9,9,5,17,4
-9,9,-1,2,1,-11,-34,-68,4
-15,1,-1,1,-5,-3,8,-4,4
2,-6,-4,-7,0,-3,-11,-7,4
13,-7,7,-8,7,7,29,79,4
5,2,-4,-1,-4,4,-63,-75,4
-17,-3,-4,-9,-8,-9,96,20,4
-4,3,-6,-9,-2,-11,-52,34,4
-2,-8,1,-3,6,5,-27,-28,4
1,-33,2,13,0,0,0,1,4
16,-6,7,-3,-1,7,-41,-14,4
4,-1,-2,3,0,-2,20,8,4
-6,-23,-5,1,1,0,18,-3,4
9,-47,-8,-35,-10,-3,6,26,4
-1,-5,8,5,2,1,-18,-1,4
-6,-12,-6,1,-2,1,9,-11,4
-6,-14,4,3,-5,-3,-23,-7,4
-2,-22,3,12,23,5,21,9,4
1,-6,-8,-6,-2,1,-7,16,4
0,-7,10,-9,-1,0,-1,-18,4
14,-4,2,5,0,-4,-7,-17,4
-12,14,-3,4,-7,0,20,31,4
-3,-7,5,0,-1,4,21,42,4
-4,-7,0,8,3,-4,-21,-85,4
-16,7,-13,-8,-7,-4,-7,5,4
14,11,6,1,-3,-1,11,34,4
17,-1,8,26,11,2,1,3,4
0,4,-6,-21,1,2,22,4,4
-4,16,-1,-9,-12,-6,-10,-36,4
-7,4,-3,4,-3,-2,-19,0,4
0,-10,0,0,4,-4,11,-14,4
1,-6,-2,8,5,4,-36,-2,4
-4,-17,-5,-10,-4,-2,11,25,4
3,16,5,4,-5,1,-12,-2,4
8,16,-1,-4,-6,-3,-8,30,4
-4,8,-1,-7,-6,-6,14,-47,4
-4,-6,2,3,-2,0,16,37,4
-3,17,-1,18,8,2,-6,-39,4
29,18,-1,-12,-4,-2,-25,-6,4
9,10,-2,-5,-6,2,16,28,4
-6,3,0,16,5,1,-12,-24,4
0,-9,-5,-21,-3,0,14,16,4
-16,4,-1,-2,-1,-2,-15,-18,4
4,7,-3,1,-5,0,-17,-16,4
1,7,-2,-13,1,-1,3,-59,4
-4,24,3,22,5,-6,59,52,4
-4,-2,-8,-4,-2,-3,-73,-64,4
1,0,2,-12,3,-1,35,40,4
2,9,4,-11,-10,6,-4,-15,4
-15,5,0,-4,2,-2,33,-34,4
-4,1,0,2,-1,-10,-74,-14,4
5,-17,7,48,18,4,-8,5,4
6,15,-3,-43,-16,-8,-6,3,4
0,4,-8,-19,-12,4,13,16,4
20,6,1,17,10,2,20,20,4
-8,3,-4,-7,0,-5,-24,-11,4
-6,-12,2,-3,15,3,18,18,4
5,-22,4,18,-3,-4,-43,-6,4
-11,9,-8,-31,-10,-3,20,-21,4
0,6,-3,-7,-6,3,19,23,4
6,-11,3,25,7,-1,26,75,4
-9,-17,-2,-3,2,-7,-42,-6,4
-7,-6,0,3,1,2,-2,-29,4
2,-5,-2,-2,-6,0,-30,-32,4
-2,8,3,2,-2,-5,9,21,4
-13,-21,6,1,8,2,-20,21,4
18,-17,7,19,6,7,-7,-40,4
-10,4,-8,-20,-9,-4,50,12,4
-5,9,-1,23,7,-5,-23,20,4
15,-8,-3,-20,3,3,11,35,4
-8,13,3,-13,-6,1,9,-4,4
11,14,-3,-6,-8,2,-38,-1,4
1,0,0,-5,-3,-1,29,-10,4
0,7,0,11,3,-1,-5,-2,4
-7,-2,-2,8,0,-5,-7,43,4
-1,-1,-3,-5,2,-4,-9,-13,4
-1,0,-4,12,-2,2,7,-14,4
0,16,-2,1,8,-2,5,-11,4
-2,-1,5,0,-2,4,-6,-15,4
-7,8,3,5,1,-1,9,46,4
12,10,5,13,10,2,14,4,4
4,6,-7,-10,-22,-7,-48,-12,4
-3,-5,-1,-10,0,6,81,70,4
1,14,0,7,1,-10,-41,-65,4
4,-16,2,5,1,-3,-43,15,4
5,0,2,2,8,4,24,15,4
0,-9,3,8,10,2,-3,6,4
2,-17,-2,-8,2,0,25,39,4
-12,-8,-3,-9,-4,-2,-7,3,4
-11,-4,-1,-3,-3,0,12,-3,4
1,-8,2,-2,-6,-4,-11,-14,4
2,-13,5,11,4,5,21,37,4
-7,-11,-10,-46,-17,0,-21,-36,4
-4,-11,0,10,-2,1,60,9,4
-10,2,-7,-13,3,-7,-81,10,4
2,-3,5,10,-2,7,-1,-46,4
-3,4,-6,8,-10,-3,60,90,4
3,13,-3,-4,-3,-7,-25,-77,4
0,-9,1,8,1,-2,22,21,4
-5,-4,-3,-3,2,-1,-13,-11,4
-13,4,-1,3,6,4,-21,-35,4
8,-8,-1,-9,3,1,12,18,4
-8,2,0,17,-4,-3,5,-5,4
-3,-4,-2,-10,0,-1,-7,4,4
7,-3,4,-1,2,0,12,-10,4
-7,-5,-3,7,3,-1,-7,26,4
2,-1,-2,-5,-2,-4,-8,-48,4
-3,-12,-2,-5,2,4,50,32,4
15,18,-4,8,3,-7,-35,-24,4
-7,-1,4,23,-1,4,-7,-48,4
-2,-3,-9,-46,-8,-4,65,96,4
-1,-1,0,12,-2,2,-40,-99,4
-8,-25,-4,-8,-9,-8,-22,-55,4
7,-54,2,6,3,1,-2,21,4
3,-19,4,13,7,4,16,17,4
-8,-16,3,35,8,2,5,9,4
-7,-15,-11,-53,-13,-3,-18,-9,4
2,4,-1,-8,0,-2,-10,-47,4
-3,4,-1,3,-1,1,3,-6,4
1,40,-2,-7,0,0,7,31,4
2,21,7,23,9,4,10,-15,4
9,23,-1,-8,-1,1,-12,45,4
-25,-56,-5,-1,-3,-2,-8,-5,4
11,-16,-1,-4,-2,-2,-8,-1,4
4,4,5,11,6,3,2,5,4
-5,24,-6,-14,-4,-1,30,13,4
-6,64,2,12,0,-4,-25,-10,4
-3,24,-4,-14,-5,-7,-2,19,4
1,1,2,8,0,2,19,20,4
26,39,3,-4,2,7,-20,30,4
2,15,0,-2,0,-5,-7,-39,4
-2,-20,1,12,6,1,-6,-55,4
2,0,-8,-13,-17,-11,31,95,4
-9,-20,11,16,11,-1,-9,-37,4
-3,-20,-18,-14,-5,1,0,-15,4
3,7,-3,-21,-14,-5,-5,10,4
3,23,0,-7,6,5,0,-19,4
-14,-5,-5,-1,0,-4,-9,-2,4
-2,2,3,14,1,1,6,5,4
-2,16,1,17,9,1,23,-3,4
1,10,2,7,4,-5,-64,-35,4
4,10,1,-5,-6,-2,21,11,4
20,17,8,10,8,5,50,23,4
-18,18,-7,-15,-11,-7,-10,-31,4
-1,-9,2,1,4,-3,-16,-19,4
1,-7,-3,-2,-1,4,-5,-13,4
3,7,4,3,1,0,-2,13,4
6,-3,-4,-11,-3,1,3,20,4
-8,-7,-3,2,0,4,32,22,4
-10,6,1,0,2,-7,-70,-40,4
6,5,-3,14,4,0,15,5,4
-18,9,0,-48,-8,-1,6,22,4
0,-9,5,8,6,3,-5,-13,4
-5,-8,-5,11,-6,0,30,30,4
-11,5,3,3,-6,-2,-20,-22,4
8,-13,0,4,2,-1,7,0,4
-6,15,3,35,16,2,5,14,4
-1,6,-9,-50,-19,-4,18,43,4
-5,4,-4,7,-1,-3,-6,-45,4
10,8,-1,-9,-8,-2,-15,10,4
3,11,0,-3,-5,0,-10,-28,4
2,-10,-3,16,9,1,35,36,4
-4,-9,-3,-5,-6,-4,-50,-33,4
-8,-11,-6,-3,0,-2,-13,-38,4
3,-4,0,10,6,1,10,27,4
-5,1,12,31,6,2,1,-14,4
1,2,-11,-19,3,-2,-9,7,4
35,11,4,-7,-11,9,5,16,4
-11,-19,-4,-8,-3,-7,-30,-20,4
-2,-25,7,37,14,1,25,-1,4
12,1,20,14,19,-3,0,19,4
3,27,-11,17,-5,-4,-1,15,4
9,28,-13,-86,-42,-8,-5,1,4
6,6,-5,-21,-3,7,35,51,4
-16,-5,-4,-2,-8,-10,-59,-68,4
2,7,11,27,20,4,19,62,4
-19,3,4,11,4,-2,-16,-64,4
2,23,-3,-8,-3,-2,-11,10,4
8,19,11,1,2,4,31,29,4
-4,-3,-2,-1,1,1,-3,-3,4
-2,-4,-4,15,10,4,13,10,4
-2,4,-5,-10,-4,-4,-16,-24,4
18,54,3,11,9,11,-10,8,4
-20,2,-3,-6,-14,-10,-22,11,4
11,41,-6,-4,-1,-13,72,43,4
3,-27,5,9,6,6,-43,-113,4
-7,-12,4,-6,-9,-6,16,51,4
5,-43,-2,24,16,5,23,-21,4
-5,27,-6,-46,-10,-5,-57,21,4
-4,8,1,17,11,-7,25,27,4
13,21,-5,-15,-8,4,14,3,4
-8,3,7,0,-3,-2,-14,-11,4
0,-24,-2,2,-4,1,-10,-24,4
2,-5,-2,5,2,-2,7,-1,4
-26,-48,0,10,4,2,-14,-9,4
7,-10,0,-36,-19,-5,9,-1,4
3,1,-3,12,1,6,14,-13,4
-11,-2,-4,-23,-9,5,3,19,4
-5,-22,-3,14,4,3,25,12,4
-19,-6,3,13,11,2,-93,7,4
9,0,1,4,4,0,89,65,4
-19,4,-6,-2,-5,-12,-46,-35,4
6,-1,0,-2,-3,3,20,19,4
-2,3,0,-5,2,4,-2,-15,4
15,1,8,15,9,10,-28,19,4
8,-1,-2,-5,1,0,-32,-23,4
-9,3,-7,-11,1,-9,47,20,4
1,-4,4,35,24,7,24,43,4
-8,20,-6,-20,-11,-12,-30,-53,4
2,35,-9,-23,-7,1,16,13,4
7,13,-6,-43,-32,-8,-68,-83,4
10,-25,3,12,11,12,31,-2,4
-10,18,0,36,-4,-19,29,18,4
-7,-14,5,-12,10,-1,-55,-25,4
9,-5,5,17,0,2,30,35,4
15,21,-3,-41,-9,-11,-31,-26,4
0,3,-8,-17,-3,4,-24,-54,4
13,-22,2,-2,2,18,40,77,4
-18,15,-4,0,-2,-19,-54,-39,4
-22,26,-11,7,-14,-20,19,7,4
-9,-14,10,16,8,8,-30,-51,4
8,19,0,-2,-3,-1,9,46,4
14,-13,3,11,6,9,20,41,4
-12,-2,-6,-4,2,8,2,-66,4
-9,-5,-3,-4,6,-4,-29,25,4
0,-2,-4,2,3,-4,3,-13,4
5,9,2,10,3,0,-6,2,4
18,18,1,-7,-5,0,14,30,4
4,-8,-4,-22,-16,3,-7,-51,4
-20,-3,-3,8,-5,-3,69,51,4
-12,-18,4,35,12,8,25,-41,4
11,22,-9,-41,-17,-12,-39,-6,4
3,-17,3,-5,-1,6,-15,1,4
-10,-6,2,1,2,-6,-23,-39,4
22,-14,-8,-17,-3,11,73,115,4
-20,-18,2,14,6,-8,-48,-73,4
-8,11,1,15,7,-1,-20,42,4
7,-2,-4,-16,-15,-16,-7,0,4
-25,-9,0,-5,2,3,-4,-73,4
5,-10,4,13,7,3,-60,2,4
5,-9,-4,-2,4,2,45,19,4
2,-26,-4,5,3,2,34,84,4
-10,7,-6,-15,-4,1,-46,-77,4
-7,-8,0,6,3,10,76,64,4
-9,-36,26,100,48,17,25,-9,4
10,41,-29,-92,-59,-16,-89,-58,4
6,-4,1,1,-1,-11,30,30,4
3,6,-3,-9,-8,0,20,-3,4
4,-16,4,16,7,0,-28,33,4
-22,-15,7,29,19,8,68,-31,4
19,25,3,-14,4,-3,-31,-21,4
-29,13,-2,4,0,-2,8,28,4
4,-4,-5,-4,-9,3,11,-2,4
8,-5,5,-1,-7,-3,-47,-8,4
-15,15,-17,-43,-28,-8,11,-31,4
-4,-12,7,26,16,3,11,21,4
22,19,-1,-36,-8,8,-67,-78,4
-15,18,-7,0,-5,-21,73,4,4
2,-8,6,31,27,1,-2,26,4
15,-4,-2,-12,6,-5,-3,37,4
4,12,-5,-20,6,-4,-10,-4,4
10,-4,2,12,5,4,-11,-20,4
-4,-10,1,11,10,3,-24,24,4
3,-4,2,12,18,1,8,-13,4
-20,28,-2,-8,3,-17,-40,-56,4
-14,-6,12,28,35,2,23,-88,4
-5,27,-7,-35,-17,2,-33,32,4
25,17,-2,-9,5,6,31,-13,4
11,-5,-6,-12,7,0,15,42,4
2,-10,3,26,13,14,13,30,4
-5,-3,4,17,9,-6,-27,-32,4
-4,-1,-6,-29,-31,8,24,-11,4
-7,-1,3,18,13,-14,0,6,4
12,4,1,1,-3,14,-7,13,4
15,-27,9,13,1,18,-28,-34,4
-20,11,-7,1,-19,-25,77,35,4
0,4,-1,8,-14,-6,37,92,4
4,-12,-6,-10,0,0,-50,-52,4
15,28,0,-15,-7,2,9,26,4
4,1,-2,-8,-4,6,-41,-21,4
-22,-15,-3,-15,-21,-3,14,-4,4
77,20,15,59,6,-3,-12,13,4
-10,12,-6,-43,-29,-7,-11,-7,4
-5,-5,-2,1,-23,-3,-2,-3,4
4,-5,-3,5,-16,-1,20,10,4
-8,-9,-3,-2,-13,-1,-26,-19,4
-7,-8,-1,18,11,0,16,-1,4
7,17,5,1,9,-3,1,8,4
17,-20,4,-2,1,10,-39,30,4
-40,26,-9,-22,-8,-20,16,-74,4
-7,1,-8,-4,3,-10,-21,-26,4
-13,-3,-5,-11,-1,0,8,68,4
7,-7,5,41,12,10,2,-48,4
-5,7,3,-18,1,-3,-6,21,4
1,-10,-4,11,-6,0,19,22,4
10,-2,-4,-17,-36,10,-31,-20,4
-21,-8,-4,-7,-13,-12,13,-2,4
1,-10,-2,-12,7,-15,-43,1,4
-7,-21,3,26,20,3,24,-14,4
20,2,3,16,24,5,-11,-7,4
1,-2,-6,-19,-6,-3,9,1,4
-11,-14,5,13,0,3,12,12,4
7,-7,-5,0,8,0,1,36,4
8,-11,-1,-7,1,-1,-1,7,4
-6,9,-2,-18,-8,5,22,-26,4
5,3,3,-11,1,4,3,-1,4
1,-13,4,10,5,5,9,-8,4
-1,17,-1,-4,-12,-20,20,47,4
-2,-9,-2,4,9,-2,-14,-28,4
-6,-27,2,11,-4,10,18,28,4
5,-20,0,-8,6,-2,-4,64,4
-18,3,-6,31,7,-1,-27,-72,4
1,-9,-1,-31,-9,-6,-14,-9,4
6,-2,-9,-39,-1,11,1,56,4
-9,5,-1,-5,-7,-4,40,22,4
27,-24,5,17,19,-3,40,30,4
5,1,8,23,0,-10,-36,21,4
-4,-7,-8,-17,-7,2,-53,-19,4
7,0,-5,-3,-6,9,2,-35,4
-20,-10,0,-4,8,-4,2,25,4
-23,6,-8,5,-2,-10,61,-44,4
-50,-5,5,9,9,4,8,-3,4
-18,9,-2,-7,-10,-12,-45,-55,4
17,-2,4,3,7,9,-52,-71,4
3,8,1,-14,-1,3,-4,-22,4
0,2,3,10,2,-9,11,32,4
-20,-13,8,53,7,4,14,7,4
-12,15,-7,-33,-9,-4,-16,-9,4
-8,3,-5,-52,-7,2,6,28,4
14,13,-8,-16,-15,-3,11,13,4
-1,-7,-2,32,10,5,-5,21,4
2,0,4,22,-2,-2,0,-34,4
5,9,-3,-4,6,5,-48,-5,4
6,-7,2,7,-7,7,25,-19,4
3,22,-8,-24,-7,-18,38,73,4
-32,2,2,19,6,-7,-70,-90,4
14,9,2,15,5,15,12,-16,4
2,3,-3,-4,-5,1,-15,-3,4
9,1,4,-9,9,-3,-19,5,4
-4,3,-5,-9,3,4,18,3,4
-5,-2,-2,7,-4,2,5,43,4
-2,-3,-1,4,2,3,4,-43,4
20,19,1,9,-2,-9,8,17,4
12,14,-1,-14,-3,-2,-3,26,4
7,7,3,3,-6,-1,0,-29,4
2,-7,8,41,9,1,21,17,4
0,7,-12,-31,-14,-2,-20,-39,4
-22,-16,1,-1,0,2,30,-37,4
19,20,-1,0,5,-7,-41,-48,4
-56,-6,2,23,6,1,-4,13,4
8,-14,2,13,1,-4,-14,-19,4
-1,3,-1,-53,5,-5,14,21,4
8,4,-5,-23,-19,-3,63,63,4
-4,-8,0,-8,1,1,-51,-58,4
-12,26,-5,-14,-6,-4,-11,-86,4
9,-10,7,36,11,7,15,38,4
-11,-17,4,30,4,2,-23,31,4
9,30,-7,-40,-5,-3,40,-24,4
13,0,7,8,3,9,-7,-11,4
-1,-2,-1,8,-7,-6,5,18,4
-11,3,-10,-8,-1,-3,69,59,4
8,-16,0,7,0,-8,-69,-66,4
9,-2,3,-3,0,5,4,17,4
-2,15,-1,-5,1,6,9,5,4
7,-77,-3,-2,2,0,-19,-26,4
4,-40,1,48,13,2,7,44,4
-4,-3,-16,-66,-16,-6,8,-23,4
9,23,-2,-1,-3,6,15,-3,4
-12,28,4,11,2,-6,-13,15,4
18,17,2,-1,-1,0,4,24,4
-6,8,5,18,2,-6,-7,-21,4
8,4,2,7,-4,-2,16,80,4
-20,-7,-6,-3,0,1,-8,-53,4
8,13,-4,-11,-3,-1,11,64,4
-4,7,-1,6,-2,4,-29,14,4
-73,-30,-1,-13,-1,2,27,-28,4
69,26,2,22,10,0,-19,1,4
2,-13,8,1,0,-2,8,2,4
-8,-7,-6,4,4,3,40,43,4
0,2,-7,3,-15,-7,-48,-13,4
-19,3,1,-34,1,3,9,-13,4
0,-9,-1,1,6,8,72,46,4
1,-4,2,-7,-1,-5,-56,-41,4
3,-11,0,17,8,0,17,28,4
-16,-25,0,4,-4,1,-5,-30,4
19,6,-1,-11,-3,0,-7,18,4
-12,-20,8,20,5,6,10,-16,4
11,-6,-5,-23,-2,0,-3,-32,4
-5,-25,-6,-8,-6,-1,43,112,4
-1,0,0,-8,2,-2,-60,-82,4
-14,-2,-2,-6,-11,-5,20,-3,4
26,-7,6,16,2,0,-13,34,4
0,9,3,-8,-3,2,-23,-35,4
2,18,-9,-13,-11,-6,-20,-55,4
2,6,-5,10,2,0,25,27,4
7,-6,3,0,9,6,-5,-14,4
-8,-6,0,-14,-4,5,11,-2,4
6,11,-1,2,0,0,12,29,4
2,2,-2,-5,-3,-6,-30,-10,4
-3,-3,-2,6,14,1,-5,-2,4
-11,-28,-1,7,3,8,26,-20,4
-4,3,-1,-6,1,0,-12,-16,4
3,-10,2,-1,-1,-2,17,46,4
3,8,2,22,5,-6,-15,2,4
-3,-15,2,-15,1,0,11,-7,4
1,9,-2,19,-2,-2,-5,33,4
4,14,-5,-43,-1,1,-12,-27,4
6,-67,3,23,9,5,-4,-29,4
-7,-25,-2,-6,-16,-7,-55,1,4
-12,-64,3,3,-3,-9,95,76,4
25,2,0,-4,-3,-6,-11,-9,4
-73,18,-1,3,-9,-5,-33,-42,4
0,41,2,25,9,3,-1,5,4
-2,42,3,-13,-2,2,-26,-19,4
-2,56,5,14,0,3,5,-14,4
9,33,-5,-22,-5,0,31,61,4
-5,26,-2,13,5,-7,-42,-84,4
-2,33,-9,-12,-6,-5,-5,-4,4
-10,-13,-4,3,11,-1,6,27,4
14,19,-2,0,-2,2,-7,13,4
0,4,5,10,5,-7,14,39,4
15,18,-10,-27,-7,-4,-14,7,4
9,5,4,2,1,1,-13,-11,4
11,8,0,-5,-3,-2,43,22,4
-34,-14,-1,7,2,-7,-20,-42,4
-16,-2,1,14,1,1,15,-10,4
-11,-5,2,9,0,2,-19,-5,4
12,6,-1,-12,-8,4,12,6,4
2,-2,-2,-10,-6,-2,-10,-25,4
-8,-2,-5,-5,2,-4,-42,-8,4
-8,-5,-5,-10,-4,-1,21,-2,4
4,-5,2,-2,4,0,-3,-19,4
-7,0,-7,-11,1,-5,22,25,4
1,-70,-3,-1,-3,-1,-7,-10,4
5,-28,1,7,0,4,34,66,4
6,-9,1,13,2,-4,-25,-31,4
14,-3,-4,-19,-6,2,0,12,4
4,15,1,1,4,6,20,39,4
-24,-55,1,-4,1,-3,-7,-69,4
8,-43,-1,-3,-6,-5,5,35,4
9,-29,-2,6,10,6,-37,-6,4
2,5,-5,-3,-8,-11,-2,18,4
-4,43,1,7,-6,-8,39,53,4
-14,32,-4,-14,-5,0,-15,10,4
35,34,-1,8,6,5,8,1,4
-1,33,7,8,5,7,3,1,4
-11,16,2,4,6,6,-25,-39,4
2,23,-2,4,2,-6,6,-12,4
3,15,-1,0,-1,4,-10,47,4
-3,4,-4,6,0,3,11,-20,4
1,14,-4,4,-2,-3,-1,20,4
4,17,1,-26,-2,1,-11,-7,4
1,6,2,12,5,5,23,-14,4
-10,11,1,-8,-6,-5,-21,-74,4
1,6,-2,9,7,-2,-7,27,4
11,6,0,0,2,4,-1,28,4
-5,-16,1,-4,-3,-10,-13,-32,4
7,-10,-3,-8,-5,-3,34,45,4
-13,-26,-2,-12,0,6,5,-3,4
22,8,-3,-1,-3,-6,-40,-22,4
-13,6,-3,-1,-2,-7,-2,21,4
6,2,0,6,69,4,-8,-1,4
-17,4,1,-5,29,1,5,-24,4
82,22,1,4,4,12,15,-6,4
-6,8,-4,-11,-38,-9,41,41,4
-6,3,11,11,-30,-1,-16,-32,4
82,24,-1,12,-16,11,-2,24,4
-23,-17,-5,-2,-24,0,7,-44,4
-13,-6,-4,-2,-5,0,-8,29,4
5,6,-3,-5,-16,1,-48,-20,4
-1,2,4,-4,-21,2,49,58,4
-22,2,0,25,-7,-5,-29,-43,4
2,9,-1,-13,-3,2,43,-16,4
-13,3,2,-12,2,-4,3,-5,4
-10,-4,2,28,6,0,1,-5,4
-11,6,7,-39,-3,-3,2,21,4
-11,-10,-21,13,9,-1,-39,-55,4
6,2,-4,4,-3,2,-16,0,4
2,2,-2,3,0,-5,-10,10,4
-16,0,-2,-25,3,-1,18,6,4
-3,-4,6,8,9,2,-14,-14,4
-31,-5,2,-7,-3,4,25,10,4
28,4,-6,-2,-2,-7,-40,24,4
-40,-1,-5,8,5,-1,-4,-53,4
15,2,2,-4,-1,4,20,7,4
-3,-3,-2,12,2,-2,-25,-25,4
-16,0,3,-13,-5,-7,-10,2,4
5,-14,-1,1,2,-1,4,48,4
6,5,6,1,-10,1,-5,-23,4
8,-7,-4,-1,-13,-1,15,22,4
-37,-14,-1,-4,-4,0,-17,-27,4
2,-2,-2,-2,5,-2,4,30,4
-5,1,2,8,8,-2,1,-4,4
8,1,-8,-34,1,-6,10,18,4
-8,4,-1,0,1,-1,-10,-16,4
-6,-1,-5,-17,-3,0,-10,-38,4
-1,-1,4,9,9,2,33,57,4
-19,-6,-5,2,-3,-5,-45,-106,4
6,-2,-6,-8,1,3,22,4,4
0,8,0,13,-1,-10,-9,6,4
12,2,7,7,5,2,1,44,4
22,5,4,2,-6,0,8,-5,4
-12,-4,-1,7,16,7,-35,-29,4
4,-2,0,-1,-4,11,26,-29,4
-2,9,-5,-10,-6,-14,25,-7,4
-5,4,9,24,11,8,25,58,4
-4,-8,4,-8,0,-4,-7,7,4
19,6,-4,19,3,3,8,16,4
-9,-15,-8,-20,-5,-2,-29,-19,4
4,14,-14,-39,-15,-3,11,6,4
9,5,3,5,1,0,15,-7,4
-8,-3,0,10,1,-2,2,30,4
-11,-4,5,-2,10,-1,-4,-28,4
11,4,1,1,-3,-5,-83,-23,4
-26,-4,-4,-14,-7,-2,66,59,4
60,17,-1,1,4,-8,-1,51,4
-2,10,2,5,-5,-5,-25,-25,4
-24,-14,-2,2,-2,3,22,22,4
-5,8,2,-3,0,5,-12,-8,4
-24,-10,-2,2,12,-2,-7,-29,4
5,-9,-2,7,8,3,17,59,4
11,0,-3,-1,2,-2,11,-44,4
-4,3,1,16,-1,-4,-7,-14,4
-24,-5,0,17,-1,-5,-29,-37,4
7,11,-11,-58,-25,-6,-18,-4,4
-7,7,2,5,0,-1,18,17,4
8,2,-2,7,2,-1,14,-5,4
-8,17,4,10,-1,5,13,15,4
-12,-5,-1,11,8,7,-18,4,4
4,5,-4,-8,2,-1,-1,5,4
18,3,0,-13,-8,-4,6,67,4
-4,7,1,-8,-2,-9,-69,-66,4
-32,-4,5,15,9,8,40,57,4
-3,-11,5,11,2,-3,-21,-60,4
1,0,-8,-9,-1,-8,18,33,4
-11,-10,-2,-9,-3,3,25,48,4
-1,-1,9,27,5,-3,-25,-46,4
9,-7,2,-14,4,8,-13,-2,4
-7,-4,0,3,2,4,-2,14,4
-7,-7,-9,-15,-11,-18,9,-47,4
5,-2,-1,25,4,-3,13,13,4
4,-6,3,17,3,4,15,48,4
16,9,3,-22,-4,2,-28,-43,4
1,4,4,-6,-9,5,16,38,4
13,-2,-2,3,6,3,-8,-13,4
-5,5,-11,-13,-13,-7,12,23,4
-22,-8,-3,-1,3,5,-9,-29,4
-22,-9,4,-2,4,0,10,-12,4
13,3,8,10,4,3,-4,-21,4
4,5,2,10,2,-6,-12,61,4
6,0,2,-4,-5,5,-46,-64,4
-5,12,-2,3,0,-13,30,74,4
-56,-8,-6,-8,-6,-3,12,6,4
17,3,3,-1,3,-5,0,-4,4
3,5,0,3,-3,1,7,4,4
8,-6,-2,1,0,7,29,21,4
2,4,-2,-13,-2,-3,-22,-2,4
-6,-7,0,8,7,5,-8,-2,4
1,4,-2,4,0,-9,-9,-31,4
-1,-4,10,13,6,8,6,-7,4
6,18,-12,-55,-15,0,4,5,4
22,5,-1,10,-2,-2,0,-6,4
4,-14,-5,6,3,-3,-22,-1,4
-5,-6,2,-8,6,-1,20,17,4
13,6,-1,3,-11,-7,-23,-24,4
-9,-2,5,17,4,8,27,-1,4
-21,2,-6,-25,-6,1,-43,5,4
6,1,1,10,2,9,19,28,4
41,7,2,4,0,-7,74,30,4
-12,-1,-4,-5,-1,0,13,-3,4
16,5,2,18,4,-9,-9,-6,4
37,7,0,11,-2,0,-47,-38,4
11,6,3,-6,1,4,0,17,4
-12,-9,3,3,6,-2,18,-2,4
-4,-3,-2,0,2,-1,25,4,4
-32,-9,-7,10,3,-4,-55,-49,4
11,-9,0,-4,3,7,-63,13,4
-16,12,0,-11,-4,-10,56,36,4
-45,9,-1,3,-13,-20,-69,-48,4
8,0,1,-38,-5,7,17,18,4
-9,0,-4,8,4,2,7,10,4
-12,-14,7,21,6,9,-30,-15,4
8,8,-5,-30,-11,1,17,-1,4
-4,-3,-2,8,4,-6,27,32,4
-46,-5,3,-1,2,6,-45,-93,4
3,-9,-4,-3,-5,-1,5,53,4
-11,4,-1,9,7,-5,67,75,4
23,12,3,-5,-4,-3,-9,-26,4
-1,-2,2,27,5,-3,-1,15,4
2,-4,-7,-16,1,-1,-15,-10,4
7,-1,-2,7,2,1,3,-9,4
-39,-19,0,6,5,0,13,44,4
29,0,-3,2,-4,-2,30,1,4
4,5,4,-5,4,-1,-21,-29,4
16,3,0,-21,-3,5,13,15,4
-5,8,-4,-6,-5,-3,-38,-1,4
0,0,3,-3,1,2,-5,7,4
8,10,-5,-24,-11,4,56,48,4
-3,1,-1,-1,-6,-2,-9,-54,4
-8,-1,-5,-2,-8,-6,-12,-29,4
0,-6,6,24,0,3,24,32,4
-47,0,-2,-8,6,2,-74,-77,4
24,-10,2,1,1,5,18,23,4
-30,2,-6,-3,-8,-14,9,64,4
19,9,3,-1,-1,-8,-13,-45,4
-5,-4,0,21,2,-1,4,-17,4
42,6,0,-4,-1,0,9,-22,4
7,4,-1,-3,-1,4,-32,-51,4
-2,-9,-4,-11,0,-1,11,33,4
6,1,-7,8,-7,-8,-10,13,4
-13,-8,11,48,15,6,17,-7,4
19,0,-7,-30,-5,-1,-46,-1,4
-2,4,-1,-5,-4,-2,3,11,4
19,17,3,-6,-5,1,24,-19,4
-10,-9,-1,16,8,-4,40,37,4
13,-4,-1,-1,0,4,4,-4,4
-5,9,-5,-9,-14,-3,38,20,4
3,-5,-3,-15,-3,-4,-65,-40,4
7,-1,7,10,-1,7,-38,-1,4
1,6,-4,-2,4,-7,-41,-81,4
-4,-9,1,0,5,1,63,76,4
32,5,7,14,9,8,39,21,4
-28,23,-13,-23,-15,-19,46,37,4
15,-4,8,16,6,8,9,-16,4
-4,7,-1,5,3,4,-39,-50,4
-51,-11,8,8,6,-3,-34,15,4
-14,-13,-13,-9,-3,3,19,-20,4
-4,3,-1,-31,-13,-8,-16,-5,4
11,10,2,34,5,-2,-18,-9,4
-1,-1,-3,-24,-4,0,28,9,4
0,-3,-8,-30,-8,-1,-22,5,4
-9,0,0,13,2,1,39,-7,4
-16,-4,1,-4,-1,7,0,-62,4
5,11,5,17,-3,-12,-81,-33,4
10,2,7,14,9,2,-1,9,4
-23,5,-3,-26,-8,-3,29,11,4
18,-5,-8,-5,1,-1,-56,8,4
1,-1,-12,-2,-1,6,118,3,4
6,-1,-1,-8,-1,-8,-119,10,4
-2,-2,4,20,4,3,51,50,4
31,12,0,0,2,-2,21,-15,4
15,3,0,-2,-1,2,14,67,4
-7,-1,1,-1,-1,3,6,0,4
18,0,3,21,7,6,-5,-65,4
-23,-1,-2,-2,-7,-15,-62,-4,4
7,1,-2,-6,-6,-5,-3,5,4
-1,6,4,9,5,1,7,-35,4
5,2,1,-5,2,7,-30,15,4
-7,-11,4,9,5,-3,63,2,4
0,11,-12,-3,-5,-9,-23,13,4
22,11,-6,-1,-6,1,7,49,4
-7,5,3,19,4,0,-22,-2,4
-18,-10,-2,-14,-3,4,-27,-11,4
10,5,3,18,1,2,-2,-2,4
-50,-8,-2,-9,-5,-6,25,-7,4
11,-2,-5,-3,-1,0,-22,-22,4
10,1,1,-1,3,13,16,67,4
-21,2,-4,-4,-4,-13,43,1,4
-1,7,0,2,3,1,21,-3,4
-1,7,2,-12,0,2,-12,23,4
-7,-4,1,-3,-2,-1,13,34,4
8,-6,12,36,11,5,2,-15,4
-28,-6,-13,-33,-15,-4,-13,-2,4
12,-6,-1,7,1,1,22,3,4
2,-2,-3,-1,2,0,-16,-33,4
6,2,-1,4,2,3,-7,13,4
2,0,12,48,9,-1,-49,-11,4
-4,9,-7,-38,-6,-1,27,-5,4
-69,-1,-8,-23,-8,-4,-11,1,4
-2,-6,-1,-13,-2,-2,5,-8,4
17,5,7,7,6,9,50,21,4
3,0,0,9,-1,2,-18,2,4
-6,5,-1,6,1,-5,8,-21,4
-4,-4,-5,-10,2,2,35,54,4
19,1,-2,-6,4,5,-10,-11,4
-2,-3,6,11,0,-3,10,-1,4
21,15,0,-8,2,-6,-2,21,4
9,-7,1,1,-3,2,-37,-17,4
7,-12,-2,11,-4,-4,-15,4,4
-1,4,-6,-5,-9,-6,51,-15,4
-27,-6,-1,-10,-11,-10,-63,-58,4
0,7,1,-10,-9,5,21,-25,4
2,-5,1,17,9,7,12,-8,4
17,-2,-1,-16,0,1,-21,17,4
58,14,5,11,-5,-2,-3,-19,4
-12,0,-3,-15,-2,-9,-20,7,4
9,5,3,-5,-2,-1,30,22,4
2,-12,-1,14,4,0,-25,-37,4
6,-1,-3,-6,1,-3,20,34,4
-15,-5,-5,-7,-1,-5,-10,69,4
1,-4,1,-5,-2,0,18,-56,4
-16,1,-2,-1,6,0,-6,13,4
-5,-14,-1,9,6,6,20,-16,4
4,3,-4,-17,-7,3,15,-14,4
-11,3,-3,-4,-5,-13,-12,63,4
-10,3,0,-4,1,-1,-23,0,4
12,5,6,5,3,-9,-22,-8,4
9,0,7,40,9,8,4,3,4
25,4,-8,-37,-8,1,-42,-49,4
-61,-4,-2,4,-5,-3,19,22,4
16,-2,-2,1,1,5,98,78,4
-16,-6,-1,-4,-2,-9,-38,-18,4
-12,-8,7,15,6,10,2,-33,4
16,5,1,22,3,-5,-22,9,4
-5,9,-6,-26,-6,2,-9,6,4
-2,5,-6,-15,-7,-4,9,-27,4
-11,2,-1,2,1,-3,-3,-11,4
16,-9,4,32,6,3,-6,-30,4
-8,8,-4,-26,-10,-5,12,26,4
24,8,1,-7,1,12,-33,-73,4
-12,8,-6,-12,-6,-8,2,73,4
8,6,0,-5,-16,-9,5,59,4
-7,-3,2,16,7,4,-22,-10,4
-16,-2,0,5,3,-1,6,9,4
31,7,1,-7,2,5,-15,-18,4
-25,-4,-4,-17,-2,-2,10,23,4
35,-2,-1,5,-2,-3,12,-3,4
13,0,2,-4,3,2,-15,-24,4
-29,7,-3,13,-1,-7,-47,-87,4
4,9,1,-29,2,1,39,42,4
-10,2,-3,5,-1,-1,-8,-9,4
1,5,-7,-18,-7,0,23,8,4
17,10,0,-13,-6,0,12,-4,4
7,-3,0,6,-3,-5,-13,-31,4
-15,-4,-4,11,2,5,-11,-19,4
9,8,0,9,1,-2,21,20,4
-11,-8,3,-3,-2,-1,18,16,4
0,-2,-4,6,3,1,-20,-1,4
-4,-4,0,4,-3,-1,2,1,4
0,3,-1,-5,-2,-11,-12,-3,4
1,-4,-2,-8,-3,2,-2,-1,4
-5,4,-1,2,3,6,18,2,4
92,30,4,6,4,-1,-12,-12,4
-17,-3,-1,-1,-3,-4,-28,-35,4
12,5,1,3,2,-5,11,19,4
15,-4,-2,0,-1,1,40,46,4
-37,-1,-1,-6,-2,0,-7,13,4
-4,2,4,9,7,3,-31,-18,4
14,9,3,9,4,-1,-47,19,4
-13,3,0,22,-1,-7,43,1,4
-21,-4,-11,-40,-7,-2,21,22,4
3,21,-4,-4,-15,-12,1,-7,4
-14,-4,1,-1,4,7,8,-16,4
3,-13,0,10,5,7,1,5,4
-10,-13,8,22,3,-3,-73,-59,4
-21,-11,-5,-10,-2,2,25,34,4
25,6,-1,2,2,0,19,47,4
53,15,-3,-15,-12,-6,-44,-127,4
1,-5,1,10,3,-3,13,14,4
-3,-2,0,-7,1,-2,-2,15,4
-6,-2,1,2,-1,-3,12,6,4
-11,1,-1,-3,6,6,12,26,4
-14,-7,-1,9,2,-3,-15,42,4
16,-2,1,8,1,3,-20,-43,4
-10,11,-6,-16,-9,-7,35,17,4
-4,1,2,5,-2,-5,-10,-10,4
-16,6,-2,-6,2,0,-5,-7,4
2,-3,0,3,5,4,44,50,4
-1,-1,-2,6,-1,-4,-20,-15,4
-18,3,-3,-31,-6,1,19,9,4
0,-2,2,-6,-6,-3,-55,-55,4
1,-4,2,10,0,-1,-15,4,4
-11,-8,-3,-1,-1,3,21,-2,4
11,-3,-2,1,2,-1,-2,20,4
-10,1,2,14,9,7,8,-14,4
-5,-2,-5,-4,-7,-1,4,3,4
12,-7,0,0,1,2,-2,-7,4
-1,-7,-2,1,-2,-5,-23,-3,4
-6,-1,-4,2,-1,-2,13,-8,4
4,4,0,-1,4,-1,7,3,4
-4,10,3,1,2,1,21,60,4
-20,2,2,10,2,0,-40,-95,4
-5,-4,-1,-12,-7,-2,-15,17,4
-18,-7,-1,1,-1,-3,2,1,4
12,-12,5,-4,9,16,-10,-62,4
-4,15,-13,-28,-15,-20,-4,105,4
-7,2,-1,22,5,3,16,-10,4
3,4,-5,-36,-9,0,11,17,4
-6,-3,3,5,5,3,-24,-38,4
7,-5,5,21,8,7,-9,5,4
4,4,-3,-25,-6,-2,50,1,4
-7,-1,-1,6,-3,-7,-22,1,4
-11,-12,-9,3,-2,-6,-20,-10,4
-18,-7,3,13,7,3,12,3,4
9,4,-1,-7,1,-2,-14,2,4
-9,4,-1,3,7,8,38,-13,4
-22,-12,-4,-5,-5,-6,6,75,4
4,-8,-3,-1,1,2,0,-8,4
-11,8,2,5,-4,-3,-40,-27,4
17,-7,9,21,14,3,0,-17,4
-8,16,-6,-25,-20,-3,20,-7,4
14,5,2,-9,4,9,6,13,4
-12,-5,-8,-9,-10,-11,-6,-73,4
8,6,-1,8,2,-4,-6,9,4
-7,6,-1,10,1,-4,-28,-37,4
6,-7,3,14,2,2,30,16,4
7,6,0,-9,0,1,5,1,4
8,8,8,47,9,-2,-6,9,4
0,0,-6,-59,-20,-9,-6,-54,4
-11,2,-4,-1,-8,-6,-8,-3,4
9,0,5,8,13,11,16,34,4
-3,-2,-7,-3,-6,-2,-15,-3,4
19,7,7,18,10,4,10,21,4
-14,1,2,1,3,-3,-6,-2,4
-7,-1,-7,-7,-3,-3,6,9,4
-53,-6,3,0,3,6,9,28,4
39,6,0,13,5,2,-14,-41,4
8,9,-2,-17,-7,-5,24,28,4
-4,-6,-1,8,0,-4,-6,-2,4
-25,-4,-5,-23,-1,-4,12,8,4
-20,-1,0,10,6,-2,25,48,4
-1,1,1,-4,1,3,-42,-63,4
10,2,3,4,9,5,28,64,4
24,3,-2,41,2,0,-6,-19,4
-9,3,-3,-47,-5,-5,14,11,4
16,1,4,17,-2,-7,-43,23,4
-7,8,-4,-15,-5,-3,7,-11,4
1,-5,-1,0,-1,0,-27,-39,4
-8,-5,2,16,2,1,5,-4,4
-1,9,-4,-20,-8,8,34,25,4
-16,2,-1,3,-2,-4,-31,19,4
10,11,-5,-18,3,5,34,42,4
26,1,0,17,7,-3,-21,-25,4
3,-4,-2,-5,5,-2,-15,-12,4
8,0,5,4,-5,2,15,18,4
27,5,-1,-18,-11,-5,-31,-70,4
-25,-9,-1,7,-4,0,-14,-14,4
-6,2,-3,-2,-5,-9,39,1,4
5,0,1,25,1,-3,-66,-26,4
-5,13,-1,-39,-10,-2,-4,27,4
-4,9,0,5,-3,-3,33,8,4
-1,3,-6,-2,0,-2,4,-4,4
-3,-4,0,6,0,-1,9,-14,4
8,-9,8,14,10,4,0,15,4
-16,-7,0,17,1,0,-46,-37,4
3,5,-9,-31,-10,-7,9,30,4
0,-5,-1,4,0,4,49,21,4
3,-6,-2,5,-16,-7,-19,-25,4
-3,0,8,13,4,0,-7,-44,4
4,1,-2,2,3,2,8,-49,4
19,5,-4,-24,-7,6,14,-20,4
3,-6,0,13,-1,-6,4,38,4
-1,6,-4,-20,-1,3,-3,-4,4
14,2,10,21,5,6,-7,29,4
-10,-4,-4,-12,1,-6,10,-8,4
7,-5,-5,-11,-3,11,44,12,4
-13,3,-2,8,0,-13,33,67,4
-20,-8,-3,-4,4,2,-87,-50,4
-3,3,3,3,-1,-1,44,42,4
3,1,0,9,3,0,-8,13,4
5,-4,0,21,-1,2,-2,-7,4
0,1,-4,-14,-3,1,21,18,4
-7,-3,-3,4,0,1,-14,-1,4
10,1,1,-3,-2,0,-54,-72,4
5,3,-6,7,1,-2,45,111,4
-21,3,1,-6,0,1,28,-15,4
7,7,-1,11,-5,-4,-56,-22,4
2,4,-3,-13,-3,-1,-4,-4,4
51,1,-3,-7,2,6,-3,-9,4
15,-3,-1,5,-2,1,0,-15,4
-5,-9,-2,4,1,3,27,14,4
-3,2,-5,-20,-1,-10,-41,14,4
-8,3,6,5,4,0,2,-15,4
1,1,-4,0,-5,-6,-11,30,4
18,2,5,-4,5,8,37,13,4
-10,2,-1,3,-1,-5,-29,-74,4
-28,-5,-6,-4,-8,-8,28,-19,4
-9,-5,3,8,1,1,-10,6,4
-8,-4,6,23,8,0,-2,-13,4
-5,3,-9,-35,-10,0,14,29,4
0,1,-2,-3,-5,3,-13,-17,4
11,-1,-1,14,3,2,18,17,4
-19,1,-8,-6,-4,-3,-25,-12,4
15,-2,2,10,4,0,10,15,4
-29,-3,-1,1,4,-1,-3,-17,4
-13,-5,-1,-14,-4,-6,-19,22,4
-2,-1,1,-1,-3,1,-28,-33,4
-17,4,-2,2,3,-3,56,45,4
7,1,7,23,8,8,-55,-74,4
-5,-4,-4,-22,-9,-11,49,30,4
-1,7,-6,-9,-3,-8,-11,-34,4
-6,9,4,-8,-2,3,0,2,4
6,1,0,11,2,3,-12,4,4
6,-3,4,5,1,3,-13,-21,4
-8,1,-1,-9,-2,-9,-16,-5,4
-8,-5,-7,-2,1,4,31,30,4
4,3,-3,-16,-6,1,22,1,4
-3,0,5,19,3,-2,-45,-85,4
-4,-2,-2,1,3,-5,-17,36,4
3,6,-3,4,1,2,43,76,4
5,2,0,-1,-5,-2,17,-17,4
-59,-2,-3,13,1,5,13,1,4
-4,0,0,-14,-11,-3,-26,-17,4
1,-6,5,16,2,-2,5,-60,4
1,-5,6,-12,0,0,-20,6,4
28,16,-6,-13,-6,-2,3,-2,4
9,-4,1,6,6,5,18,17,4
8,5,6,19,12,3,-40,7,4
-17,7,-3,-12,-8,-10,-37,35,4
-3,-7,-2,4,4,-4,25,8,4
4,4,1,-13,3,4,56,17,4
16,2,-4,1,-10,-11,-57,-13,4
1,-2,1,-5,5,2,14,9,4
6,1,3,8,3,2,-24,4,4
2,9,-2,1,3,0,3,14,4
-19,1,1,-16,-4,-1,37,19,4
7,-1,-3,10,2,5,-47,-8,4
5,-2,2,4,4,3,20,5,4
48,6,-1,-6,-7,0,6,0,4
0,4,-6,-9,-7,4,36,-9,4
2,2,-1,-9,-9,-9,-20,20,4
13,-2,0,5,-3,-2,2,-7,4
-13,-12,-3,6,2,-5,-11,-2,4
-1,-11,5,19,10,2,-15,-12,4
4,-3,-1,-20,-3,0,27,12,4
-8,0,-5,-1,1,1,9,28,4
-3,5,0,-2,-2,-3,12,-5,4
-4,-1,-3,-10,-6,-5,-6,-15,4
-11,-7,1,11,4,-1,5,-34,4
-2,-4,0,-5,1,0,-11,-12,4
-4,3,-2,-5,-5,0,0,21,4
3,-9,-1,5,6,4,-32,-40,4
5,-1,-3,26,-1,-2,57,79,4
-5,6,-2,-33,-6,-3,-53,-48,4
0,8,7,17,5,-1,-12,-5,4
17,17,-8,-19,-16,2,19,16,4
6,-12,-6,-6,-9,0,-1,10,4
2,6,3,4,7,0,21,25,4
-1,-3,0,14,1,-3,-11,-46,4
-14,1,1,-16,-2,-4,-8,19,4
-4,-2,2,15,0,0,-15,-16,4
1,-1,-1,-8,-6,-1,12,10,4
-9,-4,-4,-16,-1,-4,2,15,4
-5,3,0,3,8,-4,-16,-16,4
0,3,-3,-5,-1,3,15,9,4
-4,-2,2,15,2,-4,-20,-67,4
-4,-1,0,2,1,1,11,25,4
73,8,0,4,1,-1,1,1,4
-7,7,-2,-15,2,5,25,11,4
25,-6,4,5,3,-2,-5,-13,4
11,8,-2,-9,6,0,6,2,4
-20,-10,0,10,-2,-5,4,0,4
-4,-3,-2,-10,5,-2,-22,-61,4
3,-2,0,11,-4,3,24,49,4
-15,-13,-6,5,-3,-1,0,-10,4
-19,-36,-4,-8,-6,-9,-13,11,4
-4,-10,-2,19,0,-1,6,5,4
-11,-4,-4,6,-4,2,5,19,4
-9,15,-1,-25,-13,-3,-18,-32,4
-10,20,2,12,6,1,-8,9,4
3,15,0,-10,-3,-5,-2,-13,4
-2,8,-3,10,0,-6,-7,-6,4
-7,3,0,12,2,2,-8,-13,4
-9,6,-3,-6,-4,1,11,9,4
2,7,1,-2,-7,-4,-23,2,4
6,4,4,1,6,7,-15,3,4
-9,-1,-4,-8,-8,-9,41,-17,4
0,-2,0,3,6,-5,-37,-35,4
5,-9,1,-4,11,3,-1,16,4
-5,3,-4,-8,-3,-6,6,17,4
15,-6,-3,-3,-4,6,-2,27,4
-8,4,4,-3,-5,2,-23,-58,4
-10,10,-5,-4,-3,-6,47,68,4
0,3,3,1,3,7,-12,-33,4
-5,1,3,0,-1,2,-4,36,4
-5,1,-2,5,3,-8,20,-19,4
-6,-4,2,-18,-6,-1,-65,-34,4
-7,0,1,0,3,-4,17,13,4
0,2,-6,-15,-8,0,-1,3,4
-4,-1,-3,-12,0,1,-6,5,4
11,4,0,1,-4,1,-7,-21,4
-10,-4,-2,9,6,-3,5,18,4
-2,0,0,-2,6,2,-3,-20,4
10,1,-3,9,-3,5,15,31,4
-6,-2,-3,3,-3,-8,-24,-48,4
-1,2,0,-8,-2,3,-30,-2,4
-10,-4,2,3,-1,0,-4,-10,4
-3,6,-2,0,-5,-7,17,69,4
-9,-4,-1,1,1,2,20,-36,4
6,4,-2,-2,0,-3,-27,7,4
-10,-4,-2,4,0,-1,33,25,4
-1,6,3,-6,0,1,-3,13,4
2,0,6,23,13,1,0,-26,4
7,-7,1,-1,-2,1,17,4,4
4,-6,-9,-33,-7,-7,-5,5,4
0,-2,4,7,4,-1,22,12,4
8,-1,-3,-14,0,0,-46,-1,4
-7,-3,-6,9,6,3,20,-10,4
6,1,3,8,1,0,-25,-23,4
-8,7,-2,-30,-9,-3,-12,-62,4
9,-7,-3,14,2,3,42,45,4
-4,5,-2,2,-3,-5,19,34,4
3,0,3,8,-1,-2,-17,-36,4
2,0,-3,8,4,7,11,8,4
-6,-5,1,-8,-4,-6,5,-4,4
11,3,-5,-16,-9,-2,-1,-13,4
12,5,2,10,6,-3,-39,-1,4
-13,-4,6,9,3,2,49,9,4
0,6,-4,6,3,2,-15,13,4
-9,-14,-1,-9,5,4,40,-4,4
-12,0,-4,-17,-16,-8,-55,-5,4
3,-1,8,18,19,1,19,4,4
-4,11,-9,-32,-13,-2,20,-18,4
-4,7,5,12,1,3,12,-7,4
-9,-4,5,13,12,6,-25,10,4
-71,-9,-4,-9,1,5,9,23,4
13,2,-1,11,2,-2,12,-1,4
3,8,-3,-5,-1,3,-17,-3,4
2,0,-2,-3,3,1,33,-6,4
-2,-4,-8,2,-13,-7,-55,-20,4
-6,-2,3,0,5,6,13,-22,4
-1,1,-4,-8,-7,-9,-22,39,4
3,7,-1,-2,1,-9,49,26,4
17,2,0,4,0,-3,-4,-14,4
-1,-2,4,24,6,1,-2,12,4
6,-4,-3,-55,-8,-1,-28,-24,4
22,1,0,11,-5,3,13,18,4
13,46,-4,5,-5,-2,-27,-20,4
-10,12,-1,-22,-9,-1,22,47,4
-1,-1,3,28,9,3,16,13,4
-4,-17,2,-6,3,3,-4,-29,4
-3,-19,-2,-12,-4,-7,60,39,4
1,-8,-4,5,-1,-8,-102,-45,4
-51,-8,0,9,2,-1,9,17,4
-5,0,-6,-7,-5,1,23,-49,4
10,-9,-2,5,-1,-4,-63,-67,4
-5,0,0,-1,2,-1,37,24,4
-2,-2,-2,0,-9,-9,-13,-7,4
-14,3,-2,1,4,3,-24,6,4
10,0,6,17,5,3,27,43,4
-5,1,-4,-4,-1,-2,-5,3,4
14,2,2,-25,-1,1,9,-8,4
-4,-4,-6,21,-3,-4,-18,7,4
11,1,-5,-13,-2,-3,-9,2,4
5,0,-7,1,1,1,28,43,4
7,9,1,6,-2,-3,-70,-88,4
-13,0,2,-8,2,7,39,29,4
19,-3,-4,-2,-2,-4,3,2,4
2,4,5,8,2,-4,29,10,4
11,3,-2,5,0,-1,12,15,4
7,3,4,10,9,3,-5,-28,4
-56,-6,-2,-12,-14,-2,-26,6,4
1,-4,1,-8,-2,4,-33,-28,4
-1,-3,-6,0,-1,-4,47,32,4
15,5,-1,-8,-4,-3,9,-5,4
7,4,2,4,5,9,31,41,4
-1,-3,4,13,3,6,-27,-31,4
-4,-8,0,-18,-1,-1,-25,-10,4
-10,0,-4,-6,-4,-6,16,8,4
7,2,1,-3,0,-3,-15,-12,4
1,8,-3,-22,-11,-5,-8,28,4
9,1,1,22,3,0,10,-10,4
-2,-1,2,-16,1,-8,2,17,4
10,2,-4,4,1,-10,-11,-3,4
-7,-9,1,6,3,-5,10,-51,4
10,4,0,2,1,-3,-29,5,4
3,3,0,8,1,-4,26,55,4
-1,-4,1,3,1,7,7,6,4
-5,-3,1,-3,0,3,2,6,4
-10,0,-2,1,-7,1,7,35,4
58,6,1,17,3,2,-25,-20,4
14,-3,-2,-22,-6,4,18,1,4
-7,-7,-9,0,1,1,-11,-4,4
-7,-5,0,6,-6,-1,-9,-11,4
-12,3,3,-4,2,4,15,30,4
9,7,4,3,4,3,-24,0,4
11,-3,4,3,10,4,86,80,4
-2,7,-3,-3,-3,-6,-55,-67,4
-17,-5,1,7,2,-4,-13,-6,4
-11,-8,0,7,2,-4,12,-25,4
-6,-2,-1,-24,-9,-2,-48,-7,4
-9,3,1,8,3,2,14,19,4
4,0,2,-4,-4,-1,-1,-7,4
6,-12,2,8,5,-2,-7,-20,4
-4,-6,-6,-1,-7,-4,26,37,4
-13,2,-10,-28,-9,0,17,-2,4
4,0,-1,-3,-1,-1,-27,-5,4
9,7,-2,-4,2,2,-15,-8,4
2,-2,7,19,6,2,-7,-19,4
12,-2,3,9,7,3,31,25,4
-10,5,-5,-11,-4,0,-11,-28,4
1,0,2,13,2,-8,-19,5,4
-51,-3,-5,-20,-7,1,-20,14,4
2,-5,0,-1,0,-3,38,-70,4
12,2,-6,-9,-4,5,14,18,4
-7,8,-2,1,-6,-8,-39,-54,4
5,11,0,-1,2,-1,-4,2,4
-9,-1,4,7,1,1,-1,28,4
3,-7,2,6,1,-1,-1,-3,4
-12,-7,-1,-8,-1,6,30,-1,4
14,7,0,-5,-4,-3,-17,-23,4
3,1,-2,1,3,2,-11,7,4
-4,-10,1,8,3,2,22,32,4
3,-4,-6,-32,-10,2,-10,11,4
1,1,4,20,6,-1,19,-3,4
9,2,-3,-3,4,-1,2,12,4
-16,5,-8,-16,-11,-4,6,-25,4
0,2,-2,-6,-4,-7,-64,3,4
9,0,3,5,7,3,-4,-18,4
1,3,4,2,-2,-2,-9,-7,4
-1,-4,-1,7,6,-1,24,63,4
-6,6,-1,6,2,0,42,-40,4
11,3,3,1,-3,3,-4,-9,4
49,6,-2,1,1,-1,10,7,4
-22,0,-1,-3,-2,-3,-83,-73,4
4,2,-2,1,-5,-7,84,56,4
19,12,0,-9,-1,1,1,28,4
-4,-7,3,7,0,-1,0,-14,4
3,-2,-2,-5,-6,-3,-21,10,4
5,-10,-4,-3,2,0,2,5,4
-13,-6,1,28,7,-3,-5,-28,4
-5,6,-6,-16,-10,-4,-16,-16,4
4,11,1,-1,0,0,13,7,4
-10,-7,1,8,3,1,-17,-6,4
3,3,-13,-34,0,-5,3,-1,4
-11,-1,1,12,7,1,0,12,4
4,-1,6,5,6,-1,4,-9,4
16,0,1,8,2,4,6,3,4
-7,-7,-3,-4,0,-1,-5,-7,4
-1,-2,-3,-16,-13,3,24,23,4
-13,5,-2,6,-5,-9,-6,6,4
-60,-2,4,1,-1,-2,-68,-38,4
7,-1,-1,-3,2,4,50,6,4
-12,6,-7,-7,-5,-8,3,20,4
7,3,3,4,-3,0,19,6,4
-1,4,1,2,0,-1,-34,-22,4
-8,-1,-3,-7,-6,-3,-6,24,4
2,-3,1,8,-1,3,12,13,4
-1,0,0,5,3,1,8,-4,4
16,-10,-6,-5,-2,0,-5,-16,4
-10,4,-6,-7,-11,-7,1,45,4
7,-2,0,2,4,4,-10,-5,4
-4,6,-2,-2,0,-7,-40,-32,4
19,6,9,1,6,6,34,18,4
4,-2,-1,18,0,-2,3,-1,4
-13,0,-10,-29,-6,-7,-21,-11,4
5,-5,-2,1,7,6,28,26,4
3,0,0,-2,0,5,-47,-36,4
-8,-6,-1,12,0,-2,32,23,4
-8,-1,4,11,-2,-11,-6,5,4
-4,-1,-6,-16,-1,7,20,4,4
-4,4,-1,0,-3,-6,5,3,4
36,3,7,3,0,-2,-13,-62,4
-4,-4,-2,11,5,-2,13,31,4
13,-6,-1,-2,1,-1,-13,-11,4
-10,2,-1,-5,0,0,1,24,4
-11,0,0,4,0,1,32,46,4
4,3,1,-8,-1,1,-21,-32,4
-7,0,0,-12,-5,-2,5,-23,4
5,5,-3,4,0,0,18,81,4
-17,-8,3,8,5,3,-18,-73,4
-7,-9,-4,9,-5,-8,-3,12,4
5,1,-2,-21,-3,1,-44,-3,4
-7,4,1,0,-2,-5,71,47,4
51,10,1,3,3,5,-22,-11,4
-2,-2,10,9,-3,-2,-12,-4,4
18,7,-5,4,1,-14,-35,-44,4
-6,3,1,2,-4,-8,-35,3,4
-6,-4,-4,-7,2,1,24,31,4
-19,2,0,-8,-2,1,-52,-62,4
2,-6,2,-11,-2,1,5,44,4
8,-3,-4,0,5,-4,57,40,4
-2,8,-2,-1,-5,-5,-14,-12,4
21,3,2,-8,3,8,4,2,4
-19,-8,-4,7,3,0,27,9,4
3,2,1,17,0,3,-9,-31,4
-20,-7,-3,-16,-7,-3,-43,-21,4
-1,8,1,-11,-3,-1,43,36,4
-5,5,-1,21,4,3,16,11,4
4,-5,1,-13,-4,-2,-19,-32,4
-1,-4,-3,-4,1,-1,-11,13,4
-34,-7,0,10,1,-8,20,-37,4
30,3,-1,3,3,1,0,26,4
1,0,-3,-12,-2,-5,-31,-50,4
-15,0,0,-1,0,0,24,18,4
-4,1,-2,1,0,3,-13,33,4
6,11,1,0,0,-1,39,13,4
-5,2,-6,-5,-5,4,0,-17,4
14,5,4,-4,-7,3,0,33,4
10,3,-1,4,3,2,-31,-11,4
-16,0,2,8,-1,-7,28,11,4
6,-2,-2,-10,0,-1,17,14,4
-6,-2,1,1,3,1,9,1,4
14,6,-4,-4,1,0,4,9,4
-10,-5,8,21,7,7,-14,-16,4
-4,6,-6,-24,-5,1,25,31,4
-10,-2,-1,-7,-6,-10,-41,-35,4
12,1,-8,-7,-2,2,12,-24,4
49,4,-6,-1,2,4,-18,29,4
2,-1,0,10,1,2,-5,-25,4
5,3,2,-5,1,-2,13,-21,4
13,6,4,17,5,0,-35,-14,4
-27,-10,1,-8,-5,-3,15,15,4
7,0,-2,1,1,-1,-41,-46,4
4,6,0,-2,-7,-5,15,4,4
-16,-4,-2,8,1,0,20,-29,4
-25,-3,-1,-12,-4,-1,18,8,4
-6,-2,0,7,1,-1,-34,-12,4
-1,1,6,14,15,1,-3,-8,4
-2,4,-4,1,-9,-4,13,18,4
-1,3,-1,-6,-2,4,-6,-53,4
12,-3,-4,-16,-6,-6,-5,15,4
3,3,0,12,7,5,7,19,4
-4,-4,1,-2,3,-1,-13,4,4
1,-1,-3,-10,-6,-3,-24,62,4
39,10,4,7,-2,1,29,-22,4
2,-4,0,4,-1,0,18,26,4
0,2,1,-16,3,0,5,-7,4
-6,-8,1,9,4,1,-15,-40,4
0,1,2,11,2,3,16,27,4
-7,1,-5,-17,-5,-1,-27,4,4
-17,2,1,6,-2,2,-16,-31,4
3,4,1,-1,0,-1,19,-29,4
-15,-5,3,16,9,0,15,31,4
-11,-1,-10,-10,-13,-2,28,-2,4
-3,-5,-4,-3,-1,-10,-66,-49,4
8,2,1,6,-1,2,-6,-19,4
0,4,2,-1,-1,-1,7,33,4
12,2,7,36,17,5,0,-2,4
5,-2,-7,-34,-14,4,35,35,4
55,14,-2,-18,-12,-8,-31,-9,4
11,4,1,3,0,-3,-27,-8,4
-5,-1,-1,2,-3,-6,6,-6,4
6,-3,3,13,6,4,31,34,4
-25,0,-2,-1,2,-4,-18,-32,4
-10,4,3,-1,1,4,-14,-6,4
-1,-6,-2,-8,0,-4,9,-2,4
-1,-3,-4,-1,1,-2,29,9,4
-11,-3,-1,5,1,-3,-22,4,4
-8,0,2,-9,-2,-1,4,-27,4
-1,5,-2,-3,4,3,-25,-17,4
0,2,1,-2,-2,7,-16,16,4
-4,5,-1,2,-3,-6,61,-22,4
3,-3,-4,3,1,0,-48,-3,4
-6,5,-5,-26,-7,-5,-13,-1,4
-36,-6,0,5,3,2,25,23,4
-28,-11,-5,5,7,3,-15,-36,4
-9,0,-5,-8,-14,-3,22,-5,4
16,4,2,12,-1,-3,-4,-9,4
6,3,2,-14,-1,2,19,40,4
-11,2,2,1,3,2,-8,-10,4
-4,-8,-1,3,2,-2,23,11,4
-27,-11,-8,-2,-6,-3,-13,-23,4
11,3,0,5,0,-4,3,23,4
-19,-3,1,3,0,2,-2,7,4
9,-1,3,22,-2,1,6,9,4
5,5,-4,-19,-3,3,-16,-28,4
-5,0,1,2,2,2,20,-14,4
-7,0,-8,-8,-16,-10,-28,-51,4
-26,-5,-2,5,3,1,5,-3,4
-9,-5,-4,-15,-5,0,-1,18,4
7,4,2,11,3,1,-22,-17,4
3,0,4,10,9,4,1,27,4
-24,-3,1,3,-3,2,33,-18,4
-8,-6,-3,-35,1,0,-15,19,4
5,15,0,-2,-5,-5,-19,-101,4
-2,-7,1,-2,-1,-4,44,78,4
-5,-7,-15,-4,-2,-6,-36,-25,4
-2,-2,-2,2,-2,4,33,11,4
12,2,1,-3,0,0,-18,9,4
-2,4,3,-7,1,7,10,-3,4
2,3,-2,2,2,0,-7,-11,4
-8,1,3,13,-1,-2,-18,-40,4
-9,-5,-1,2,3,-1,13,36,4
15,0,-3,4,0,2,-17,-9,4
-3,-2,2,-7,4,0,18,31,4
16,-1,1,3,-1,-5,3,5,4
-1,1,-1,-4,-1,-5,-17,10,4
-4,1,-1,12,0,0,-8,-3,4
6,5,-1,-11,-6,4,2,9,4
3,7,5,3,5,1,16,30,4
0,0,1,11,6,-5,-25,-42,4
-4,4,-6,-24,-10,-1,-11,-29,4
4,-1,-2,5,0,-1,25,14,4
5,3,0,5,0,-5,-26,0,4
5,-1,-2,10,4,-4,22,17,4
-55,-2,4,3,6,4,-4,2,4
-2,4,-3,-16,-5,-5,-11,8,4
7,2,1,0,-1,0,19,-32,4
-4,-1,-1,3,-1,-2,-17,-7,4
11,0,-6,1,0,0,5,-19,4
5,1,2,1,4,1,10,14,4
-1,-3,3,5,1,1,-11,-24,4
0,0,-5,-20,-7,-4,-9,27,4
15,-5,2,3,-3,-3,6,8,4
1,-4,-4,-1,3,-2,-1,3,4
8,5,-1,3,0,3,4,-6,4
-7,-12,2,4,-2,2,16,43,4
0,0,-3,-21,-5,-4,-10,-6,4
-2,0,-2,-15,-8,5,18,-3,4
-20,0,4,18,1,-11,-49,10,4
-2,0,-6,-20,-10,-1,-20,-46,4
5,-2,6,29,11,2,0,13,4
14,4,-1,-18,-6,-6,-2,-10,4
3,6,0,2,-1,1,26,43,4
5,2,3,9,8,-2,-10,-11,4
-39,-6,-4,-5,-6,-6,-3,14,4
-18,-3,4,12,7,-4,-38,-23,4
17,-6,-5,-4,0,12,67,2,4
-5,6,-3,5,1,0,-25,-5,4
13,3,-2,-1,-4,-3,-23,37,4
-20,-3,-3,0,5,3,13,-12,4
-23,-8,-1,1,1,1,-9,-15,4
-22,-7,-2,0,-3,0,14,17,4
15,4,1,-3,5,4,3,-20,4
8,-4,0,6,-4,-4,-46,-25,4
11,1,-12,-39,-15,-6,12,19,4
8,5,3,11,4,5,37,39,4
5,4,3,3,-4,1,11,14,4
-1,0,1,-7,3,-4,-10,-23,4
-19,-4,-2,1,-1,-2,-20,-36,4
8,6,2,7,-1,-3,-4,5,4
12,-4,-7,-12,-3,3,3,-7,4
-60,-11,-1,-2,-1,-6,-9,23,4
17,6,-3,3,-5,-3,10,40,4
6,3,1,1,4,8,-5,-23,4
5,0,-2,2,-7,-6,-16,5,4
15,2,3,5,3,5,27,17,4
-26,1,4,4,0,-6,-38,-40,4
5,0,-2,-2,0,-2,31,42,4
4,-2,-1,0,2,1,-3,-44,4
15,1,-4,1,-2,0,0,-11,4
5,-2,3,2,1,-6,-18,-12,4
11,-2,4,22,11,5,17,1,4
-14,9,-3,-36,0,4,49,17,4
30,10,1,18,-10,-9,-59,1,4
-50,-8,-4,-39,-13,-7,10,-15,4
3,2,-1,1,-3,-2,10,39,4
-4,-3,-2,9,3,3,-53,-49,4
3,1,0,5,8,2,59,37,4
-11,-2,0,26,5,4,4,1,4
5,2,2,-16,-4,0,50,4,4
5,0,0,1,1,-8,-42,40,4
-14,-1,1,2,4,6,-29,-27,4
27,9,2,15,8,5,8,16,4
-13,-6,-6,-11,-6,-3,-15,-70,4
15,-5,1,6,-5,-4,21,13,4
-4,-3,-2,-4,2,-2,4,-32,4
10,7,1,-3,-2,1,-10,6,4
2,-1,-1,1,-6,0,-4,-17,4
-13,-2,3,16,7,1,17,40,4
-13,-3,0,-24,-5,-1,14,2,4
11,2,-6,-14,-7,0,-26,-6,4
-20,3,0,18,8,5,1,15,4
35,2,0,-1,-4,-8,25,9,4
7,2,-2,-13,1,7,-2,11,4
-2,-7,-1,6,3,-3,34,31,4
0,-6,-3,0,-2,-2,-49,-72,4
-13,0,3,-2,0,1,-3,-33,4
38,3,-1,-5,1,-2,20,73,4
6,4,-2,2,3,-3,-27,-22,4
-7,-5,0,1,-1,-3,11,26,4
3,-5,-3,2,1,-2,14,-9,4
9,1,0,5,-4,-6,-9,-18,4
2,2,2,6,1,3,-21,-30,4
-4,1,0,-6,-3,-6,-4,25,4
-6,-1,-5,-9,-3,3,10,5,4
-12,0,0,9,-3,0,-14,6,4
6,-2,2,29,7,-5,22,-9,4
11,4,6,-26,1,5,-28,-18,4
-5,0,-6,-15,-9,-4,55,37,4
-12,-5,-6,4,2,-2,25,-9,4
45,0,2,-3,4,0,16,44,4
9,4,-2,-9,-10,-4,-51,-32,4
4,5,7,11,3,8,-18,-6,4
-13,-9,-4,-3,-4,-3,28,19,4
-31,1,-3,-2,1,3,-12,-13,4
3,-6,-4,1,2,-4,12,24,4
1,-3,-1,1,2,-5,-48,-13,4
4,-1,-1,-3,-5,3,16,22,4
11,3,1,12,0,0,-19,-34,4
31,3,-5,-4,-1,-3,15,26,4
-25,-7,-7,3,-5,0,15,-1,4
22,1,7,9,2,-3,-15,1,4
-7,0,-3,-10,-3,-3,-43,-7,4
-13,1,0,-3,-1,1,13,-14,4
5,1,-1,4,1,-3,32,43,4
-7,-1,3,2,6,3,-13,-46,4
1,1,1,-25,-9,-5,16,101,4
-60,-3,-3,14,3,-6,-38,-42,4
-5,0,0,-22,-5,-2,-21,-91,4
-1,-2,-2,-6,-3,3,5,4,4
-7,-2,1,-5,-1,-1,24,17,4
5,2,-3,-7,-7,-1,2,3,4
7,4,7,12,4,-2,5,25,4
12,5,2,-12,-2,3,18,3,4
-10,-4,-2,9,3,-4,-41,-52,4
11,0,2,9,4,2,26,9,4
-3,1,-4,-3,-4,-4,-5,-17,4
9,5,2,10,1,-6,-26,4,4
-60,-10,-1,-3,-3,8,12,-3,4
27,1,-3,-1,-5,-2,4,3,4
-2,-3,-3,-4,0,1,-16,5,4
-6,1,1,1,3,1,2,-8,4
4,5,-1,9,-2,-3,-2,-10,4
3,2,4,-15,-1,3,4,17,4
-10,-8,-2,4,0,0,-4,0,4
-13,2,-3,5,-3,-2,4,-5,4
10,-3,5,31,15,5,4,-21,4
3,-1,-9,-39,-16,-2,36,57,4
-39,-1,0,-7,-1,-1,-36,-20,4
-15,-1,-4,1,-2,-4,-56,-64,4
12,0,-4,-19,-9,-2,57,49,4
-7,-1,2,22,7,-2,1,-17,4
-2,1,1,1,6,11,16,-1,4
-2,0,-3,-7,-5,3,41,52,4
-11,-3,-2,4,0,-7,-56,-40,4
3,1,2,9,2,1,0,2,4
12,3,-3,-9,-6,-3,6,-3,4
6,1,4,12,7,1,7,-1,4
6,2,0,7,2,1,4,4,4
3,2,1,-9,1,-3,7,7,4
15,-4,1,13,5,-2,-15,-11,4
1,-2,-9,-6,-9,-4,-4,-4,4
-2,1,-1,-15,-5,-3,6,11,4
-9,2,-2,10,6,1,-17,-18,4
29,10,5,20,-1,1,-18,20,4
17,-1,-2,-2,3,6,52,-65,4
15,7,-2,-35,-7,-12,-51,19,4
-7,-3,-3,9,1,-4,-44,-29,4
12,-4,-1,6,-2,-3,14,38,4
9,2,-4,-29,-1,-1,-13,25,4
9,1,1,9,1,5,15,-11,4
14,4,6,5,4,1,8,9,4
-3,2,2,-1,2,-3,-8,3,4
-13,-6,-1,4,-3,-3,-6,-10,4
-9,-9,-3,8,1,0,9,-17,4
-4,-1,-6,-6,-5,-5,5,27,4
-9,-3,-1,-9,1,-2,2,-10,4
1,1,3,9,4,1,7,21,4
9,3,-1,23,-4,-2,7,-12,4
-6,-3,-3,-2,-6,4,22,0,4
-6,-1,-5,17,2,-4,-36,-34,4
-3,0,-7,-51,-12,-4,44,25,4
-7,0,0,6,3,-6,-66,-12,4
-5,0,4,10,8,6,18,25,4
-6,1,0,-1,-2,0,23,2,4
15,0,3,22,6,0,-28,33,4
-6,-3,-2,-13,-5,-3,10,-59,4
5,-7,-3,-5,-6,1,21,20,4
19,-1,-1,-12,-3,-3,-4,15,4
-20,-3,3,9,3,1,-24,5,4
-4,0,3,-17,2,4,48,10,4
-2,-4,-6,19,-1,-6,-32,-25,4
-11,-1,1,-3,-2,1,9,-4,4
-2,-2,-3,6,-1,-4,-13,-3,4
7,-3,-4,4,-2,2,5,0,4
-9,-2,-2,-15,-2,-3,4,-12,4
-2,-1,-3,-21,-5,-6,2,2,4
4,4,3,10,8,2,-25,-34,4
11,6,1,-8,-7,-4,27,46,4
-3,-10,-5,-12,-3,2,-19,-31,4
-10,0,-7,-5,-3,0,16,-14,4
3,5,3,3,-2,2,-36,19,4
0,-3,-2,18,2,-1,17,-6,4
-8,7,-3,-11,-2,0,18,23,4
-22,-2,3,-2,0,0,-18,-6,4
36,5,-1,-5,0,-1,-2,-6,4
2,5,2,4,1,3,-1,22,4
6,3,6,8,1,-1,-16,-20,4
-1,-1,3,17,4,-1,18,15,4
-22,-7,-9,-18,-11,-3,21,11,4
21,3,-4,13,1,-3,-7,1,4
11,4,0,-12,0,-1,-4,12,4
12,3,1,-10,-2,4,8,26,4
-11,0,1,9,-1,-5,-7,-7,4
-2,1,1,-1,3,3,1,8,4
3,1,-2,1,0,-3,-19,5,4
10,0,2,13,5,2,39,33,4
-8,3,0,-4,1,0,-36,-32,4
-33,-9,-5,-12,2,2,67,-11,4
13,8,1,9,-1,-9,-28,18,4
-4,-4,-3,-8,-3,0,-7,-25,4
3,-4,2,9,2,-1,11,12,4
3,2,1,-1,0,6,5,7,4
75,9,-6,-24,-5,-3,0,-7,4
3,-4,-6,-14,-2,-4,23,35,4
-15,4,-2,2,-4,-14,-50,-72,4
2,6,1,0,-2,5,-3,17,4
-47,-8,1,-7,6,4,24,-18,4
8,2,-3,-12,-3,5,-20,2,4
11,-6,-2,3,-1,2,34,33,4
-16,-7,-1,-12,-1,-9,-22,-11,4
-17,-2,1,11,1,2,-1,-4,4
-7,1,-1,4,1,-4,-16,-5,4
-8,6,1,4,3,6,22,18,4
3,4,4,-6,-4,-2,-63,-65,4
-9,-4,-2,-1,-6,-8,22,39,4
14,6,3,6,-2,-1,28,2,4
6,2,1,8,-4,-7,-20,-35,4
13,-2,-2,-15,3,8,40,108,4
16,5,-2,2,-3,-8,-70,-119,4
-2,-5,5,39,10,1,3,33,4
1,5,-7,-44,-13,2,35,35,4
-9,-1,0,18,-1,-3,-41,-1,4
-1,-5,5,14,6,2,46,11,4
-2,0,-9,-8,-7,-5,-35,-20,4
8,-3,-3,-2,-2,0,-16,-27,4
28,1,1,1,4,-4,5,-3,4
-9,1,1,0,-2,-2,17,18,4
7,6,4,0,0,0,-15,-26,4
-12,-9,-3,15,4,4,24,23,4
-8,-1,-3,-12,-5,-3,-18,-27,4
-5,1,2,5,0,3,7,-6,4
-2,2,2,-11,-3,1,15,35,4
-18,-4,-2,5,0,-8,-51,-75,4
-5,0,-3,-7,-3,-7,-39,7,4
-5,-4,-1,3,2,2,4,24,4
20,2,0,4,8,2,14,-10,4
47,6,-3,-21,-8,6,26,25,4
-8,-3,0,13,1,1,-24,-3,4
-3,2,-3,-2,0,-4,25,22,4
7,1,-4,-6,-3,-4,-39,-13,4
-14,-1,1,22,10,2,16,24,4
23,-3,1,1,0,0,11,-9,4
-5,0,-2,-17,-2,5,19,2,4
-20,-4,-4,-8,-5,1,-15,-22,4
6,7,0,-2,-2,-3,22,34,4
-15,-4,-5,-3,-8,-3,-28,-22,4
-7,3,2,6,1,3,20,37,4
-5,-5,0,2,0,-4,-46,-31,4
-8,-2,3,0,-3,-2,-10,-34,4
-6,-1,-2,19,3,0,19,-36,4
11,5,0,-12,-2,1,8,47,4
-16,-5,-1,-13,0,2,4,-16,4
-7,-5,-6,-2,-1,-3,-45,-9,4
-17,-1,-1,4,2,-2,55,-13,4
-10,-11,-1,4,-1,-5,-20,-9,4
59,4,1,-4,-1,4,30,8,4
-6,-1,-4,3,1,1,-14,-16,4
-1,7,0,-12,-3,8,25,21,4
5,3,-6,-1,-7,-12,-63,-67,4
-22,5,-4,0,0,1,18,10,4
22,-3,1,-2,2,-6,-20,25,4
10,3,1,-7,2,2,-9,0,4
-5,-4,-1,12,1,3,3,5,4
-11,2,-4,-13,-10,-3,-6,-20,4
-4,5,4,0,1,2,24,16,4
-14,-5,-2,-4,-6,-3,1,-24,4
-4,-6,-2,1,0,2,-5,12,4
-16,0,0,3,1,-9,10,-4,4
-14,-4,-2,2,-2,2,-2,20,4
10,4,3,2,0,-6,-13,10,4
9,4,1,3,0,1,3,2,4
0,3,0,2,-1,-1,64,26,4
-4,-2,3,-4,-1,-4,-33,-9,4
1,0,-2,3,5,5,5,12,4
-9,-2,-7,1,-1,-1,-37,-13,4
-2,-1,1,-6,-3,-1,3,30,4
2,0,0,-1,-1,-1,17,-42,4
23,0,-1,-4,-3,-4,14,56,4
-13,2,3,13,8,1,1,-29,4
-1,-2,-3,-26,-3,-2,-32,-25,4
-13,-6,-5,-7,-5,-1,16,7,4
-13,1,-1,8,1,-1,14,24,4
0,5,1,-24,-9,-1,-14,-26,4
-3,-8,-1,18,1,1,-19,5,4
-7,-3,-1,7,2,-3,17,-9,4
-32,-8,-3,-12,-2,2,-4,-15,4
8,0,3,5,-2,0,5,-12,4
-4,-2,0,8,-1,-2,3,-7,4
-4,1,-1,-3,0,-6,-13,0,4
7,5,1,-7,0,1,2,9,4
-7,1,-1,-3,0,2,15,-49,4
-5,-2,0,-1,1,3,-48,12,4
-32,-2,-3,3,-5,-3,34,28,4
6,3,0,-1,1,0,12,-8,4
3,-6,-4,-4,4,1,-7,11,4
64,8,2,6,1,0,15,8,4
-3,2,6,15,5,0,-3,1,4
0,0,0,-7,1,1,12,15,4
-4,-1,-5,0,-3,-6,-2,1,4
-25,7,-4,-12,-1,-4,-13,-38,4
11,7,-2,-5,-2,-3,-24,-67,4
5,-3,0,-2,-2,-2,26,36,4
-11,4,3,5,-2,-7,-81,-13,4
-4,-9,1,5,1,3,18,10,4
4,-4,-3,-8,3,8,-29,7,4
-9,-5,1,19,2,0,14,-55,4
-7,-6,-6,-18,-4,0,39,72,4
-5,1,3,16,-1,-2,6,-17,4
6,2,-4,-7,-2,1,13,-2,4
-3,-3,-8,-19,-7,-2,-43,-51,4
5,2,0,8,0,0,13,11,4
-10,2,1,-8,0,-2,-3,19,4
8,0,3,27,9,6,47,14,4
-8,-4,-6,-18,-7,-9,-52,-8,4
-6,-4,-2,-10,-3,0,10,-10,4
-7,-3,-2,6,0,2,-2,7,4
-1,-5,2,1,5,5,19,5,4
3,11,1,-6,-8,1,-12,6,4
12,-1,3,8,7,8,34,42,4
-7,-1,-2,6,1,1,-14,-46,4
-7,-2,-4,-5,-5,-4,-9,15,4
-14,0,-2,-13,-4,-5,-6,-13,4
9,4,-4,0,0,3,-2,-7,4
45,1,2,6,-1,1,9,9,4
3,2,3,5,3,1,-1,5,4
3,0,5,1,3,2,12,-19,4
5,4,1,-12,-1,-3,1,-12,4
-21,-2,-6,-6,-3,-1,17,3,4
3,0,2,-1,2,-4,30,40,4
7,0,4,13,2,-7,-58,-57,4
-13,-1,0,-11,0,-5,28,2,4
-15,-5,-1,-5,4,3,25,-4,4
-3,0,-2,4,-9,-12,-45,63,4
-1,4,5,-6,6,9,21,24,4
-1,-3,-6,-3,3,3,3,-19,4
-1,0,1,5,-5,-4,-29,-16,4
5,-4,1,-29,-3,2,12,-17,4
-3,-6,-5,5,1,-3,-7,22,4
2,-5,-3,11,-3,1,-5,-1,4
-3,3,2,-8,1,1,-11,4,4
-51,-11,-6,5,0,7,52,44,4
6,4,-5,1,-3,-8,-57,-35,4
0,-2,3,-5,0,1,-7,13,4
-4,-1,-3,5,2,-4,11,28,4
4,10,1,-10,-9,-2,1,-19,4
0,-3,-1,2,2,5,26,42,4
-4,3,-2,10,-1,-4,-23,-25,4
-20,-10,-2,-3,2,1,-1,9,4
13,2,1,4,0,-5,-9,-32,4
-4,6,-4,-4,-4,-8,-36,-60,4
2,-3,7,30,9,0,-14,-8,4
4,8,0,-6,-7,-3,7,7,4
9,6,-2,-27,-8,0,0,0,4
1,-8,-5,15,-1,6,51,25,4
-2,2,-4,-3,1,-4,-1,10,4
-9,0,-1,1,-12,-7,-43,-26,4
14,-4,3,8,6,2,2,5,4
-1,-4,-4,2,1,3,-5,-14,4
5,0,-3,-3,0,3,3,-12,4
3,0,4,2,4,1,13,0,4
-1,2,-3,-2,-1,0,-19,10,4
-4,-3,1,-4,-3,-2,83,114,4
10,-3,-3,-5,0,-10,-27,-1,4
19,0,-4,-11,-3,-2,10,17,4
6,1,-1,4,-1,-1,-38,-25,4
17,2,2,4,4,6,26,20,4
-15,-4,1,-5,-7,3,21,31,4
-11,-1,-2,1,0,2,-9,-9,4
-2,-1,-1,5,1,0,-3,-26,4
-14,-2,-1,7,-1,-5,-31,3,4
-6,-2,-1,-15,-3,-1,8,12,4
-4,0,4,5,2,-1,-32,-73,4
2,-1,3,-21,3,-1,31,-4,4
-2,5,-5,5,-3,-7,-22,-10,4
-6,5,-2,-9,-9,-5,-20,-15,4
9,2,1,1,-4,5,45,50,4
-13,0,-5,-2,1,0,2,11,4
7,2,8,18,10,-3,-18,-50,4
8,3,-1,-13,0,6,11,10,4
-12,-7,-2,3,4,3,-7,1,4
4,0,1,39,5,-1,0,1,4
-3,-12,-4,-17,-10,-5,-27,2,4
-4,-3,-7,-1,-4,0,62,31,4
-6,-2,-3,-7,0,0,-36,-46,4
-2,5,-1,2,-7,-13,-29,10,4
8,5,2,7,1,2,20,22,4
4,2,4,1,3,4,50,-31,4
-9,3,-2,-7,1,-7,-56,3,4
7,-5,-2,14,-2,-2,6,-15,4
-59,-1,-4,-2,-3,0,-2,4,4
-2,-5,2,6,3,5,17,18,4
-4,2,0,-12,-7,-8,-57,-63,4
3,-1,-1,-5,5,6,11,12,4
13,4,1,-10,3,2,12,18,4
5,4,5,25,4,4,-3,12,4
-6,-1,1,9,7,3,29,10,4
-14,-4,-5,-20,-7,-2,5,4,4
9,-6,-1,7,7,0,11,2,4
-6,-5,-10,-29,-7,-3,-24,-18,4
9,2,-6,-2,-6,-6,10,16,4
-1,1,3,12,6,0,-16,-32,4
-32,-1,-1,-26,-6,2,14,37,4
56,5,7,22,4,-1,-27,3,4
-5,-9,-9,-11,0,2,29,23,4
10,1,-3,-4,3,9,26,19,4
4,3,2,2,-1,-7,-24,29,4
-25,-3,0,0,1,-5,-5,5,4
3,-1,-1,-4,-3,-2,21,42,4
-1,-1,-1,1,2,1,-15,-12,4
11,-2,-1,-2,0,8,35,-15,4
-2,7,2,-1,-4,-10,-54,-4,4
13,1,4,15,1,2,-12,-19,4
-3,-5,-2,-8,-6,-3,4,15,4
1,0,-2,-3,-6,-9,30,-7,4
-16,-6,-4,1,-2,1,-1,-34,4
9,1,2,9,6,1,18,28,4
2,0,4,13,4,0,-16,-7,4
-10,4,-1,-21,-4,3,-21,-16,4
28,8,5,0,1,-1,16,21,4
56,5,0,13,-2,-2,-5,-7,4
3,1,-1,-21,-8,4,13,39,4
2,-2,-7,-10,2,-1,-13,-38,4
-10,-2,-2,-2,-3,-6,-6,-7,4
-26,-3,1,-3,-1,4,-16,5,4
18,4,0,4,7,-7,-6,-3,4
19,-5,-2,7,1,6,24,16,4
-36,1,0,-9,-1,0,-21,-69,4
-4,-2,-2,3,-1,-6,19,21,4
-1,5,2,-1,-5,-3,20,-10,4
-3,-4,-1,-14,1,-5,-42,1,4
-6,0,1,14,-2,-1,30,21,4
-1,0,-5,-17,0,8,49,20,4
-33,1,-5,-8,-4,-4,-15,-24,4
-48,-2,2,5,2,3,41,72,4
-9,-4,-1,7,-3,-11,-109,-54,4
-9,-4,6,12,8,3,20,-7,4
0,0,-5,-20,-4,-3,0,13,4
6,5,-1,-11,-10,0,4,4,4
-1,2,-2,-13,-2,4,17,6,4
-15,-3,7,-11,5,1,-4,3,4
-15,-8,-20,23,-2,-2,-22,-30,4
23,1,16,49,21,6,-13,-22,4
0,3,-21,-39,-8,-1,20,17,4
7,2,-5,-40,-14,-5,-7,-6,4
7,5,5,5,2,2,18,-8,4
3,-7,-7,0,-6,-3,18,-30,4
-1,-5,1,13,9,5,39,35,4
-4,2,-2,6,-2,-10,-80,-85,4
11,5,7,-6,-1,-6,-9,29,4
28,6,1,-1,-1,4,27,52,4
-1,-3,6,12,8,5,11,-31,4
-24,-7,-8,-2,-6,-3,36,13,4
-34,-7,-1,-5,-4,-10,-40,19,4
32,5,-2,-2,1,0,-13,-20,4
2,-4,1,4,1,0,9,46,4
13,5,2,9,4,4,-2,-11,4
4,1,1,-9,9,2,16,1,4
-24,-2,1,9,-5,-1,-28,-13,4
2,-1,-3,-16,-6,-1,-8,-4,4
-24,-2,-3,-12,-9,0,0,1,4
11,2,8,15,9,5,14,11,4
1,2,-3,-18,-7,-5,-10,-22,4
1,2,2,15,4,2,44,10,4
-2,-2,1,2,2,-7,-52,11,4
7,-5,-1,5,-4,-2,2,1,4
4,-1,-2,-2,1,-6,-17,-29,4
-6,-2,-1,1,-1,0,3,19,4
0,2,0,6,1,3,32,1,4
1,-2,-1,-4,-5,6,32,44,4
24,5,4,2,-2,-6,-53,-103,4
-1,1,-4,-8,-5,-3,6,94,4
-2,7,1,8,2,-3,1,-17,4
39,2,3,0,7,8,16,13,4
-9,-4,-3,-7,1,1,19,-25,4
-3,-5,3,34,2,-6,-43,-5,4
12,5,0,1,2,5,11,15,4
-17,-7,0,-21,-6,-2,-21,-23,4
-5,3,-4,3,-3,3,43,40,4
2,1,-1,-4,1,-13,-61,-83,4
-11,-4,-2,-3,-4,-3,21,61,4
-10,1,1,11,2,-5,-20,-28,4
-6,-5,0,18,6,0,4,40,4
-2,-3,-5,-42,-10,-1,9,-4,4
8,5,0,3,0,0,3,8,4
-4,-4,-7,-16,-6,0,18,-29,4
3,1,0,-1,3,-5,-44,-4,4
-1,2,6,14,4,4,4,-19,4
7,0,-3,-2,0,0,32,57,4
10,1,1,5,3,-1,8,20,4
8,2,-2,19,2,2,7,-10,4
0,2,2,5,0,4,2,24,4
31,2,1,-10,-4,3,13,12,4
-11,-1,-5,3,-1,-8,-32,-57,4
1,1,-1,-11,-9,-4,-3,6,4
-1,2,0,5,1,3,-6,29,4
-15,-7,-2,12,2,4,-4,-19,4
3,6,2,-10,-5,-4,3,12,4
2,4,-2,-2,-2,-3,10,27,4
-1,-1,2,-18,3,1,36,-29,4
-10,-3,-4,7,-7,-11,-45,-10,4
-3,-1,-2,-12,-6,-2,-22,-30,4
-13,-2,4,7,8,3,21,10,4
10,2,0,8,-3,4,-9,-7,4
-12,-3,-5,-29,-9,-4,9,2,4
5,5,0,3,-2,-1,-6,3,4
-1,6,2,-5,0,4,16,8,4
34,-6,-2,4,4,1,-19,15,4
-48,-5,0,5,2,-3,24,7,4
-11,0,0,7,3,-2,-88,-54,4
3,2,-1,-12,-5,-2,58,31,4
8,2,-1,5,0,-3,9,-9,4
-2,3,1,1,6,4,26,9,4
11,1,2,6,-2,-4,8,24,4
-1,-2,0,3,-1,-1,-56,-32,4
-23,-8,-5,3,-2,-2,-1,-19,4
9,-2,-2,-22,-3,3,-17,20,4
-8,5,3,9,-5,-4,-19,-42,4
4,-4,-7,-12,-3,-2,18,3,4
-7,2,3,16,1,-5,-17,10,4
8,1,0,-5,-3,-1,-21,-12,4
0,-5,-6,0,-1,3,23,2,4
0,6,1,0,1,3,-1,49,4
-17,-2,-5,2,-3,-4,-10,-48,4
7,6,-5,3,2,-4,17,-14,4
-8,-6,-5,-3,4,-5,-8,40,4
-42,-5,-1,-2,-4,-3,10,4,4
51,8,5,-2,5,7,21,9,4
2,-2,3,9,-1,-2,-46,-29,4
19,7,3,0,2,10,38,-8,4
3,-3,3,0,2,-3,-15,21,4
-20,-5,-4,-10,-5,-2,-11,-43,4
-2,-4,-1,0,-4,-1,17,-4,4
5,1,-1,-2,1,-1,7,12,4
0,0,-1,-1,3,-1,-17,-31,4
-6,5,-2,-1,0,2,-16,7,4
3,-4,-4,-12,-3,-4,27,16,4
-12,-6,-1,0,4,2,28,6,4
1,-1,-2,17,-4,-6,-49,-95,4
-9,-4,-15,-31,-14,-6,3,26,4
-26,-1,5,21,8,0,5,2,4
6,0,2,-9,-2,5,27,-9,4
-31,-8,-5,-13,-5,-6,-16,18,4
16,1,0,10,2,-2,-55,-22,4
8,5,4,-5,0,1,1,20,4
-4,-5,-6,1,-6,-9,7,-16,4
14,-5,-2,2,4,6,16,-28,4
-3,-2,3,2,-2,-5,2,25,4
7,0,2,3,1,1,-4,-17,4
-11,-1,-1,2,3,2,-10,10,4
-8,4,2,-6,-2,1,14,14,4
-8,-4,-2,9,2,6,24,19,4
2,-1,-4,-9,-3,0,-17,-34,4
8,2,4,14,6,-3,-3,18,4
-21,-5,-1,-19,-12,-5,-10,0,4
30,5,-15,-15,-7,-1,25,-32,4
20,1,-2,8,0,-1,-18,16,4
-2,3,5,-4,1,2,-5,-20,4
4,-3,0,32,13,5,70,85,4
-18,1,5,-23,-2,-1,-55,-70,4
-68,-10,-7,-4,-1,-2,47,58,4
-22,0,2,-2,-2,-5,0,6,4
22,3,-3,6,4,6,-20,0,4
-21,0,7,6,1,-2,54,18,4
6,-4,-3,5,4,5,-21,-37,4
-11,3,1,-1,-5,-2,-38,15,4
4,0,-1,-5,1,-2,46,1,4
-18,0,2,2,2,0,-19,14,4
2,-2,0,-6,3,1,-13,-23,4
1,-3,-3,6,17,0,-12,4,4
5,1,-1,2,14,2,-12,-41,4
10,1,-1,1,8,1,17,35,4
15,8,-1,-14,-17,-5,-15,-16,4
9,-1,-7,-14,-16,4,12,18,4
5,0,0,-1,-10,-1,-19,-11,4
-9,5,5,2,-5,-1,19,15,4
14,-4,-18,5,-5,-1,27,70,4
-41,-9,-7,-5,-6,-2,-40,-102,4
-14,4,0,-11,-3,-7,-42,-28,4
25,-1,10,14,-1,-5,32,60,4
-15,0,4,5,4,8,-16,-9,4
24,6,0,-4,-3,-4,22,38,4
2,1,-2,2,-2,-1,7,15,4
-10,-4,1,0,-3,-3,5,-16,4
3,4,3,-8,-3,-4,-23,-10,4
10,3,1,2,4,6,7,9,4
9,4,-2,-8,-7,-4,-21,-42,4
-3,0,2,13,5,2,2,9,4
9,-3,3,4,2,-2,13,3,4
-4,-3,-7,-15,-5,1,10,-24,4
16,1,-2,-26,-5,-3,-7,55,4
-12,-6,-3,-8,-6,-1,-8,-26,4
1,6,1,12,12,0,6,-5,4
17,10,-3,1,-5,-3,5,20,4
0,-1,9,10,1,2,16,49,4
-5,1,-2,-10,1,3,-21,-34,4
-28,-7,-1,-1,-2,6,24,-6,4
0,-2,1,8,4,-3,-11,10,4
-1,-2,-4,-3,-2,1,14,-32,4
4,-2,-2,8,0,-2,5,22,4
-2,-2,2,-3,-2,0,5,-42,4
18,1,1,9,2,-3,10,19,4
5,1,-3,-11,-6,2,-4,-12,4
-14,-1,-3,-13,1,-2,13,33,4
10,1,0,-1,0,-3,-4,7,4
-3,-1,3,3,0,0,-30,-36,4
-5,-3,-4,7,-1,-5,10,-15,4
7,1,1,2,-1,-4,5,9,4
7,-2,-4,-15,-1,3,12,-1,4
-6,-1,0,0,-2,-5,-71,-60,4
-6,-3,0,13,8,3,21,45,4
56,11,-10,-25,-9,1,14,8,4
7,1,12,4,-4,-9,-49,-84,4
-12,-8,-16,3,-3,3,45,36,4
6,1,4,13,6,1,0,-8,4
-18,-5,-6,-13,-3,-3,-34,-3,4
6,0,-4,-7,-4,-3,18,9,4
4,4,9,1,-2,-2,-2,17,4
-9,0,-3,-8,-3,-3,-13,-9,4
-6,-3,5,13,3,4,13,9,4
0,1,-5,-6,4,-1,3,18,4
-1,-5,7,10,0,-8,-26,-1,4
-16,4,-9,8,1,3,-4,-8,4
-27,-10,3,-13,0,-2,14,41,4
2,-11,-4,13,0,0,-19,5,4
-3,4,-2,-10,0,3,68,54,4
-14,-9,-4,-5,-6,-4,-20,-48,4
53,4,2,17,5,4,-39,8,4
-3,4,1,2,2,-3,-5,-36,4
-1,-3,-4,4,4,3,15,20,4
-8,7,2,-17,-5,1,-1,26,4
-28,0,2,14,3,-1,13,5,4
1,4,-2,-4,-5,-1,-4,20,4
8,0,-2,5,0,-2,5,11,4
7,-8,-3,5,4,-4,-6,-11,4
-7,-2,0,-18,-6,2,22,-32,4
-2,-4,-5,2,2,-7,-39,-37,4
-6,8,4,-8,-3,0,15,8,4
9,4,9,5,-2,0,2,0,4
-17,0,-5,4,1,-1,0,3,4
3,5,2,1,-1,4,5,13,4
-34,-7,-5,0,1,3,22,-12,4
17,2,1,-4,-2,1,-6,3,4
-5,-4,-2,8,4,3,-7,-21,4
-6,1,2,2,4,-4,9,-8,4
3,-3,2,1,2,1,-11,5,4
-34,-5,-4,-4,0,1,3,-1,4
-10,-3,-1,-3,-3,-3,21,36,4
-4,-6,-3,6,-5,-1,-20,21,4
16,0,2,-5,-1,-1,12,-21,4
2,1,-2,-1,5,0,-8,11,4
3,2,2,18,-1,1,-6,-22,4
4,6,-11,-29,-10,-1,7,11,4
-7,0,0,3,-3,-3,-8,-2,4
9,-6,-10,-24,-4,-3,-5,-7,4
-3,-3,5,33,7,0,8,34,4
4,4,2,-15,-6,-4,-24,-44,4
4,-3,3,-8,0,5,15,21,4
-1,4,7,11,-6,-6,-26,-42,4
20,3,-2,-7,5,0,-8,-14,4
-9,-5,-6,6,-3,6,4,19,4
6,2,2,-3,-5,-5,-16,8,4
-7,2,2,7,3,7,24,-4,4
-3,-4,1,-10,-20,-5,4,-11,4
29,2,0,8,-15,0,0,12,4
46,3,9,-6,-10,-2,-17,-27,4
7,0,-30,-1,-2,1,22,79,4
-9,6,2,-9,-1,0,-1,-90,4
2,2,6,-8,16,-2,-1,0,4
-15,-6,-8,-9,12,0,12,32,4
7,-3,5,20,13,-6,-16,-18,4
2,2,-4,0,0,-3,4,33,4
-11,-3,3,-3,9,1,18,-10,4
-17,2,0,5,7,-9,-57,-25,4
2,4,0,-32,3,-1,19,-16,4
-12,0,-10,-10,7,-1,-32,-7,4
-19,-6,6,17,9,-1,-3,59,4
-8,0,-3,-5,25,9,32,32,4
18,0,11,7,-9,1,-12,-33,4
-17,-7,-8,-4,-14,-3,5,-9,4
7,5,2,-3,-14,2,15,8,4
3,1,0,9,-3,-3,-24,-13,4
5,-1,6,22,25,-3,-17,25,4
-17,-7,-2,-23,7,-4,22,2,4
4,-4,-6,-1,1,-5,1,7,4
-67,-6,-2,-5,9,2,-29,-69,4
4,9,14,4,1,-4,-12,-24,4
5,2,-1,-14,-6,-1,-2,15,4
6,-1,-2,8,-5,-3,1,-29,4
5,0,1,33,-19,0,21,12,4
0,0,1,-29,-24,0,-14,3,4
10,5,4,-1,-12,1,13,6,4
-20,0,-3,7,0,2,12,-21,4
12,-1,3,-3,-11,0,-3,-17,4
-8,-6,-5,3,0,-1,4,-9,4
2,2,1,4,-6,-6,-61,-12,4
3,-4,0,-2,-5,-5,10,44,4
13,0,4,-4,-3,-2,-5,6,4
-3,-5,-19,-5,-2,-1,5,19,4
0,0,-3,-3,6,0,11,-6,4
-1,3,4,11,3,1,-6,-20,4
44,9,-4,-2,1,2,12,21,4
68,5,-2,-15,-8,-9,-16,17,4
-1,1,6,6,-1,3,2,-11,4
22,0,0,-3,2,-4,-6,-2,4
-3,0,-6,-7,1,3,15,18,4
-23,-4,-2,24,2,5,6,-12,4
7,-1,-3,-12,-3,-2,18,44,4
0,5,6,-8,3,3,-31,-75,4
-19,-3,-6,-4,-2,-8,-45,-50,4
-5,0,2,-4,-3,3,90,79,4
-4,1,-2,14,2,-7,-73,14,4
-16,-9,-1,3,-3,0,30,36,4
-4,6,1,0,0,2,9,-15,4
-4,0,1,-1,-2,-1,-45,-24,4
5,-2,1,5,8,7,20,-24,4
-5,6,-2,-4,0,-7,18,37,4
0,-6,-1,6,-2,0,10,12,4
-6,-4,-4,1,14,6,-7,8,4
-8,0,1,-30,-11,-2,2,-25,4
-2,3,-1,3,1,2,-34,-16,4
-4,-1,-3,-7,-2,-5,37,-3,4
-11,6,2,11,2,-2,3,-13,4
1,-8,1,35,11,-2,1,0,4
-1,9,-1,-25,-6,-2,1,17,4
-2,-8,-11,-10,-2,-3,-7,10,4
-7,-4,4,-6,-4,1,-2,16,4
2,-4,-7,10,4,2,7,-36,4
-2,-4,10,-6,1,3,36,30,4
-34,0,-13,9,2,-2,-40,18,4
33,6,6,-12,-10,-8,-48,-42,4
2,0,3,13,10,6,30,29,4
-55,-6,-10,-8,-1,3,10,-12,4
14,2,4,-14,-3,-2,-22,10,4
-16,-5,-2,3,0,2,40,-7,4
-2,2,1,-6,-2,-1,-17,8,4
4,-2,-2,36,1,-2,4,-2,4
-5,4,4,-13,2,2,21,-9,4
-8,-4,-2,-2,-3,-7,-55,8,4
4,0,6,-10,-2,0,28,-28,4
5,0,-1,13,6,-2,-23,-12,4
10,0,4,-14,-2,1,36,35,4
12,0,-15,12,1,-4,-7,-45,4
-19,2,9,-2,-2,-1,6,15,4
3,3,-3,4,2,-2,-12,-16,4
-34,-1,0,2,-2,-3,13,-37,4
31,9,6,-8,1,4,30,37,4
0,-4,-2,3,-2,2,5,6,4
8,-4,-16,-9,-3,-1,12,45,4
-7,0,0,9,1,-6,-72,-75,4
-18,2,9,-2,-2,4,37,46,4
-4,-7,-13,0,0,-4,-6,-36,4
20,3,8,-8,-3,1,-15,-14,4
20,-1,2,17,5,4,22,12,4
-12,-2,1,-10,-5,-3,4,9,4
-3,-4,-12,-4,-2,-7,-57,-6,4
-2,0,-3,-11,-2,-6,19,-12,4
10,-6,2,10,5,3,14,22,4
-16,7,7,-9,-10,-3,-23,-24,4
-5,-3,-1,8,-2,-1,31,40,4
18,-2,2,-2,3,1,-30,-13,4
3,2,-4,-3,-5,-7,19,-2,4
-2,-6,3,9,7,5,4,47,4
-16,-4,-1,-8,-1,0,-16,-34,4
-8,-3,-3,-1,-1,-4,-43,-43,4
34,4,1,2,-19,4,45,-2,4
-10,-4,-9,-3,-15,-10,-32,-30,4
64,15,4,3,-3,5,26,44,4
1,-7,11,-1,3,1,-10,0,4
0,-1,-10,-8,7,0,5,8,4
-10,-5,2,-17,6,6,-17,-37,4
-15,-6,-20,7,-1,0,43,27,4
2,4,10,22,12,-1,-7,-5,4
11,-3,15,-26,-6,-1,-10,14,4
2,4,-13,-25,-5,-4,-15,11,4
-7,-1,14,6,9,-5,-4,2,4
4,0,-15,0,-2,2,56,51,4
-22,-8,-11,-2,-1,-7,-48,-17,4
-13,-5,-4,12,4,-6,-1,-30,4
-3,1,5,-12,4,1,-11,-8,4
14,3,-2,-1,-2,0,25,31,4
1,4,4,4,1,1,-16,-8,4
-5,-3,-1,6,4,5,34,-11,4
18,5,-3,-4,-2,-6,-97,-26,4
-26,-2,-3,-3,-5,1,13,1,4
22,11,-2,9,0,-3,66,22,4
1,1,5,7,4,-3,-47,-46,4
-17,-3,13,-4,2,0,51,42,4
-6,-3,-31,-2,-3,2,-41,-19,4
-14,0,-5,-12,-11,-3,-22,-13,4
-5,4,-6,-6,-4,-5,40,40,4
1,6,0,-13,-9,-4,-27,-70,4
5,-2,11,4,2,1,-7,9,4
-8,-8,-3,8,-1,-1,2,5,4
11,3,-1,6,7,3,-2,10,4
-6,1,-1,7,6,4,4,1,4
6,-4,3,-6,-7,-1,13,-1,4
-6,8,1,2,4,2,4,14,4
-4,-2,6,3,1,1,-6,-5,4
-9,-4,-8,-7,-2,-1,18,3,4
-1,-1,2,-2,-1,-9,-3,-12,4
68,2,3,2,6,9,-74,-37,4
-11,5,-1,0,-4,-15,59,51,4
10,3,-7,-4,-6,-1,54,21,4
-6,0,0,-8,1,0,-24,-8,4
-23,-3,-1,5,0,0,-29,-32,4
9,5,7,-3,-3,3,-23,-12,4
-16,-11,-18,-1,0,-1,-7,-8,4
0,2,-2,6,3,1,13,10,4
-17,-9,0,-34,-8,-1,14,22,4
-4,-4,1,29,2,2,-1,-10,4
-2,9,3,-14,0,1,24,61,4
-4,2,1,5,0,-2,-29,-72,4
-3,-2,0,4,2,-4,-13,31,4
23,-4,-3,-3,2,4,-7,-1,4
24,4,2,3,1,-2,-32,-29,4
5,7,4,1,2,3,42,42,4
-4,0,-1,2,-1,-4,71,91,4
-40,-4,0,-4,3,-2,-58,-50,4
12,3,4,5,-5,-5,-16,17,4
9,0,4,-3,5,2,-6,-7,4
-1,4,-2,-8,-1,0,34,11,4
-11,2,4,-5,0,-2,-16,-3,4
0,4,6,-2,-3,4,-15,-19,4
-4,1,5,-3,3,1,9,37,4
6,2,-4,12,0,0,-2,49,4
5,-3,3,-2,1,2,28,-32,4
-13,-6,-15,-36,-8,-10,-13,-4,4
0,-1,16,3,-9,-4,-5,-13,4
-11,6,-17,-1,5,-1,-12,-8,4
8,1,-11,-1,-1,4,15,13,4
-3,-1,4,26,7,0,-4,-17,4
-39,-11,-7,-21,-12,-6,14,15,4
-4,-1,7,3,3,-2,-12,-19,4
25,9,2,2,2,3,18,-11,4
-27,-15,-11,0,3,3,-9,-8,4
66,9,-4,5,1,-4,-2,-13,4
-11,5,10,10,4,6,-20,-25,4
-3,-3,-7,-12,-6,-8,-19,30,4
2,4,5,6,0,2,14,25,4
-10,-3,3,0,1,-1,1,-24,4
-3,-4,-4,-1,1,2,10,14,4
12,0,-4,5,-4,0,-2,-1,4
3,1,14,15,12,4,-13,-4,4
-18,-2,-8,-28,-8,-2,19,31,4
2,6,13,14,1,3,41,-7,4
-18,-1,-9,-11,3,-4,-23,1,4
3,5,1,0,-1,-5,-23,-14,4
-30,-12,-7,0,-2,4,-21,-27,4
4,1,-3,-4,4,1,39,29,4
-11,-5,2,3,-6,-3,-4,-19,4
1,0,-1,6,0,0,-1,-8,4
3,3,-5,-7,0,-2,-13,1,4
-7,-3,0,3,-5,-3,-34,-29,4
-7,-5,-4,-15,-1,-1,19,7,4
59,11,6,12,-2,-1,35,0,4
1,2,1,13,1,-1,-15,0,4
-3,-3,-5,-9,-6,-2,-5,-25,4
10,2,1,4,6,3,15,40,4
-24,-4,-3,2,-5,-3,6,-3,4
15,1,-2,-9,-8,-6,-2,13,4
14,4,-2,-3,1,-1,14,-27,4
1,-1,2,-6,-4,0,-42,4,4
-8,-1,-2,-10,-2,8,42,-8,4
-2,6,2,4,-4,-3,-24,-15,4
-7,-9,-2,11,5,-3,-12,8,4
-1,0,2,-2,-4,-1,16,0,4
-18,-2,-5,-8,4,-3,-4,-1,4
9,0,3,6,11,1,2,-7,4
-6,-4,-6,-3,0,2,-11,-8,4
-7,0,-5,-3,3,4,18,-3,4
20,12,10,18,5,-4,-29,2,4
-1,3,-4,-8,-6,3,9,0,4
-5,-4,0,-1,-5,-5,4,11,4
14,1,4,5,1,-3,37,8,4
-14,-2,0,2,-2,-5,2,0,4
-2,11,0,-2,5,4,-12,-18,4
1,-2,1,-9,-7,1,-1,7,4
-5,-12,-2,11,0,0,-11,-34,4
-46,-1,0,-12,-5,1,4,21,4
15,-3,0,9,6,-5,-1,2,4
-4,5,1,1,-3,-4,-23,-23,4
3,2,2,4,1,0,58,62,4
-4,-2,-16,-19,-1,-1,-7,1,4
-24,-1,-3,-2,-7,-2,-37,-39,4
8,1,8,0,2,0,6,25,4
1,1,0,-1,4,1,-13,3,4
10,0,7,2,-2,4,12,-11,4
-3,-9,-2,-2,3,3,38,61,4
-1,-2,-16,-20,-5,-5,-14,-22,4
0,11,4,-2,-7,0,-3,-29,4
27,7,5,-3,0,-3,-25,-2,4
0,2,-8,2,3,1,14,16,4
-7,-8,4,3,-1,0,-10,-27,4
11,9,-2,-17,-5,-3,-18,-17,4
0,-5,-6,-1,-4,-2,19,2,4
0,-2,13,15,2,-1,-11,16,4
5,0,-9,1,4,1,11,40,4
-12,1,0,8,4,-2,-33,-52,4
6,4,11,-9,-6,4,-8,31,4
5,3,3,1,0,0,71,9,4
3,0,5,4,2,0,-12,-11,4
-53,-10,-6,-4,-2,-3,-31,12,4
-11,-9,-6,-6,-3,-7,-12,-9,4
5,1,-3,-5,3,3,31,14,4
3,6,-1,1,-5,3,-18,-24,4
8,-1,0,1,-2,-1,3,14,4
1,-9,-2,1,1,-2,4,-36,4
-1,6,2,13,-2,2,3,-1,4
-17,0,-9,-16,-7,-7,-26,-29,4
3,-4,2,4,3,-1,-14,1,4
3,8,-5,-17,-6,1,10,11,4
1,-10,-14,-3,0,-4,-17,-5,4
-2,-6,6,11,4,3,31,-2,4
8,-1,-6,-2,-2,-5,25,35,4
-21,1,-1,10,7,-5,-55,-71,4
-10,-3,-2,-2,-2,0,-13,14,4
-12,-3,9,0,3,2,19,4,4
0,3,3,2,-1,1,19,14,4
-15,-10,-2,0,-1,3,20,29,4
4,-2,0,-2,-2,-1,-25,-32,4
-9,5,0,11,1,-2,14,-40,4
3,-2,3,-1,1,1,-36,-16,4
67,1,-3,7,-2,-1,18,7,4
4,-4,1,-3,-5,-5,-3,-1,4
15,5,-3,-11,0,2,-23,18,4
1,3,-8,4,0,-8,27,-5,4
-5,3,6,6,3,1,7,27,4
1,0,4,7,8,4,-32,-44,4
