21,8,6,2,2,4,19,117,3
-18,-4,-1,-2,-1,-3,-10,-8,3
-23,-6,-1,-2,0,1,6,-40,3
-33,-5,-3,-3,-6,-5,25,63,3
-18,0,10,1,1,2,-32,-122,3
20,1,-8,-1,-3,-1,15,86,3
-24,-4,-5,-2,-3,-2,-7,3,3
54,12,3,5,6,11,10,-8,3
-32,-2,3,-1,1,2,9,-25,3
-48,-10,1,0,-2,-6,-1,-9,3
-25,-3,-3,-1,-2,-2,-6,19,3
11,-3,3,-2,-3,-3,-17,-128,3
29,-1,-5,2,1,1,13,73,3
45,23,20,11,10,11,12,50,3
4,0,-1,-2,-2,-4,-24,-83,3
9,-10,-10,-8,-7,-12,-21,77,3
-63,-17,-25,-7,-6,-7,-9,-3,3
79,6,-3,0,1,3,12,26,3
-6,0,37,17,16,22,26,57,3
-70,-17,27,-1,-11,-23,-28,-16,3
17,5,-13,-10,-9,-15,-34,-21,3
-52,-1,-20,-10,-9,-6,9,8,3
-9,7,-5,-1,-1,-1,0,-29,3
57,2,7,7,11,17,7,4,3
20,1,9,4,6,4,2,-10,3
-7,5,3,-2,-2,-2,-1,-19,3
17,20,-3,-3,-3,-4,-16,-10,3
-49,29,-6,1,3,5,7,-20,3
13,9,-1,0,-2,-3,14,16,3
11,-2,-2,-1,-2,1,-15,-57,3
-13,-15,-8,-2,-1,-4,1,-31,3
87,4,5,9,12,19,24,-39,3
-88,-28,-9,-10,-12,-16,-36,-19,3
92,-8,12,6,6,7,-21,-105,3
-27,-18,-10,-9,-12,-17,40,98,3
2,-5,-5,0,3,7,-3,-47,3
46,6,10,3,2,6,-7,-40,3
-42,-20,6,-9,-11,-15,-25,11,3
-73,-6,-14,-14,-14,-15,-1,81,3
69,18,1,4,7,9,20,75,3
31,4,-1,0,3,6,10,75,3
-5,2,6,3,1,0,-23,-13,3
56,2,2,1,0,2,-1,78,3
4,-13,-11,-7,-8,-13,-2,-36,3
3,13,44,10,5,3,4,-23,3
-20,6,-28,-4,-1,2,27,66,3
58,-25,-11,2,5,3,-100,10,3
-1,-22,-11,-9,-13,-14,97,122,3
127,23,-14,-2,1,1,-32,-83,3
-104,-49,-54,-10,-13,-19,1,72,3
61,33,23,-4,-4,-1,-15,-101,3
76,6,5,3,3,8,-22,34,3
21,2,-5,0,2,9,36,65,3
94,31,14,7,10,13,61,93,3
66,34,13,15,16,23,19,-2,3
-86,-3,-2,-4,-8,-16,15,58,3
54,22,7,2,0,1,24,127,3
58,-2,32,7,7,5,-14,-91,3
-50,-23,-31,-3,2,4,28,56,3
-35,-1,10,3,1,-2,-101,-128,3
22,-20,-1,-5,-8,-11,19,-22,3
-10,12,-8,-5,-8,-4,25,70,3
-22,10,14,2,3,2,21,-57,3
-31,-8,14,8,9,12,-22,-72,3
5,-8,-10,-2,0,2,21,19,3
-40,-32,6,-7,-2,-7,-49,-97,3
-2,-3,4,-2,-3,-3,57,11,3
-36,-19,-14,3,12,19,-68,-65,3
-65,-19,27,-9,-17,-22,70,91,3
9,9,7,1,1,2,6,13,3
46,-7,-15,-1,-3,-4,-33,49,3
-71,26,21,5,4,6,5,0,3
-128,-25,-32,-8,-7,-9,-58,-120,3
5,8,-1,0,-2,-10,-56,-118,3
-48,-13,-6,-5,-7,-6,78,70,3
101,24,-2,-6,-5,-10,-38,-35,3
10,6,-9,-3,-1,3,30,57,3
66,23,14,20,27,23,-4,-2,3
-66,-30,6,7,7,10,-42,32,3
80,-2,-20,-17,-29,-45,68,-14,3
68,8,-70,3,20,27,-1,41,3
-48,16,10,-10,-10,-8,15,0,3
-39,-16,-29,-1,-7,-13,-45,-75,3
-38,-8,-22,-4,0,2,-28,-5,3
-8,42,45,10,4,6,-8,-38,3
25,5,5,-7,-3,1,-3,34,3
31,22,9,1,1,6,59,76,3
73,9,30,21,24,32,-42,-36,3
-68,-30,-6,-10,-14,-24,-6,-85,3
-76,-38,18,3,1,6,25,-100,3
-51,-56,-49,-20,-22,-28,71,6,3
-54,-30,-10,-6,-5,-2,7,22,3
53,12,23,13,17,27,-15,105,3
-20,-8,-20,-10,-12,-12,-21,-4,3
24,43,26,7,12,11,-41,-10,3
-35,37,-5,-1,-2,1,30,-26,3
-68,23,-21,-12,-12,-17,-16,-69,3
-16,-50,5,5,5,11,26,107,3
17,24,8,-4,-6,-12,-42,-50,3
-21,19,-29,-4,-5,-7,-21,-43,3
-91,-23,25,5,8,16,18,-50,3
-8,-21,1,-2,-9,-9,10,99,3
59,-3,-7,-2,3,-2,-93,-127,3
76,50,-62,-13,-16,-18,120,54,3
-16,-17,10,5,4,7,-52,-104,3
-76,-1,-28,-12,-13,-22,-28,-109,3
110,27,15,9,10,13,-8,-2,3
-70,-44,19,15,8,-3,7,117,3
-6,-66,-13,-13,-4,-4,-53,3,3
77,51,42,11,17,26,28,-7,3
-65,-7,7,-13,-11,-11,-34,-7,3
-22,-24,-3,-3,1,7,-1,18,3
36,28,8,3,-4,-7,49,42,3
52,-44,10,6,1,1,8,75,3
-62,-74,29,-7,-21,-22,51,67,3
105,83,0,-12,-8,-7,-49,30,3
-2,-11,-5,-10,-18,-22,-18,-23,3
20,11,-7,3,9,9,-48,60,3
70,55,28,22,25,32,45,-75,3
-100,-108,-22,-24,-27,-21,-27,63,3
-13,-39,-9,-5,-9,-14,-18,-85,3
43,31,-11,5,7,8,-12,-106,3
11,12,11,9,7,15,34,-47,3
-32,-2,27,10,10,15,-92,-128,3
-15,39,9,-3,-7,-10,69,110,3
-9,8,-14,-10,-13,-14,37,-50,3
-15,-6,-19,-1,8,6,-32,-3,3
-50,15,22,-1,-1,-7,-3,-48,3
49,-13,-63,1,7,9,15,65,3
-37,-21,3,4,6,0,-23,-8,3
66,0,-2,3,2,4,51,72,3
36,56,4,-5,-4,-9,6,52,3
46,22,17,10,9,17,7,116,3
-109,4,-14,-5,-9,-2,-32,-3,3
-104,-21,-18,-4,-10,-5,-1,53,3
79,22,26,5,0,0,44,7,3
-51,27,-8,-3,0,1,-7,13,3
68,-3,8,17,25,32,25,127,3
-110,-17,8,-16,-30,-40,-1,3,3
72,12,-18,4,2,14,66,-14,3
-52,-40,-10,0,4,3,-72,-100,3
-18,17,12,-6,-13,-13,69,69,3
11,-17,-14,-5,2,-3,-103,-56,3
49,-71,10,15,16,21,-2,90,3
61,20,1,-13,-14,2,126,67,3
-71,-21,-50,-20,-16,-23,-59,-128,3
-9,12,-9,5,9,10,-27,-28,3
-41,-28,11,-1,5,5,1,23,3
-15,-21,8,9,7,7,-45,-44,3
60,-23,13,9,8,9,31,86,3
13,-25,33,-7,-14,-15,-4,-54,3
22,7,-13,-2,-5,4,-7,-2,3
87,-12,24,13,16,13,-11,45,3
28,-22,-6,2,4,4,-27,-108,3
-2,18,-17,-16,-12,-18,64,51,3
-123,-59,13,3,6,1,33,-33,3
26,-6,-13,-2,1,-10,-53,-73,3
-4,6,3,-4,-6,-5,-61,-80,3
62,32,-14,3,6,3,-57,102,3
37,22,-5,0,-5,-3,48,65,3
-23,-39,15,10,12,17,-16,25,3
95,19,-2,-4,-11,-11,42,77,3
-20,1,-7,-2,0,-8,-54,-62,3
-30,-15,-36,-11,-6,-10,41,-46,3
43,-9,13,-12,-20,-26,22,14,3
114,-12,26,14,16,18,5,17,3
-65,-33,-76,-19,-14,-7,-13,-27,3
91,34,-19,0,11,14,-36,-5,3
4,24,-1,23,18,-5,-16,-37,3
-6,48,-3,-29,-40,-11,11,-54,3
10,0,25,11,8,13,22,-66,3
-30,6,10,1,7,4,-22,9,3
6,20,-10,-6,-6,-6,-2,17,3
-58,-9,-4,5,6,-4,-4,17,3
72,34,34,25,29,33,29,-43,3
-93,43,-14,-19,-33,-34,-65,-112,3
-16,52,-16,-17,-23,-16,-18,-17,3
-62,-29,6,4,5,0,-19,-44,3
23,-10,26,11,8,21,24,26,3
47,-49,19,19,26,28,5,53,3
-79,32,-7,-14,-19,-20,-86,-128,3
-17,23,-19,-12,-16,-17,90,67,3
37,21,6,-4,-9,-6,-32,-3,3
-11,-2,-24,-2,-4,-3,17,118,3
64,-13,44,10,23,25,14,-22,3
-6,-3,-10,-3,5,-11,-47,44,3
-48,38,-8,-14,-3,-20,-1,-10,3
44,11,5,3,4,0,-7,63,3
-18,-21,6,2,10,9,23,28,3
18,25,10,9,8,4,15,22,3
-42,-29,-13,-6,-10,-6,-15,-11,3
-8,-52,23,7,5,15,-25,-51,3
82,35,14,-6,-16,-6,70,117,3
-23,20,4,-7,-6,-5,-38,-83,3
16,-8,-2,-1,-3,-3,-13,73,3
-61,-38,0,-1,2,3,-9,3,3
108,-5,27,15,14,14,80,94,3
-67,-60,-17,-5,-2,-18,-12,10,3
31,2,1,-1,5,-3,-15,13,3
60,18,12,-1,-5,-6,4,57,3
66,-7,0,7,-7,19,39,102,3
-42,0,-11,-11,-26,-9,-34,81,3
29,33,-15,-6,-15,-10,28,-30,3
-6,-4,0,-6,-9,-9,-4,-26,3
-36,5,28,2,9,-7,-52,-94,3
-8,-38,-20,13,27,27,11,6,3
-27,16,-8,-8,-1,-7,3,36,3
-12,6,-8,-7,-5,-11,26,6,3
-85,-12,-11,-9,-2,-8,-38,-23,3
-19,22,13,0,0,0,2,-41,3
39,-24,14,12,11,16,10,6,3
1,35,2,-1,-1,-2,-12,-55,3
-26,-11,-20,-4,1,2,22,81,3
49,10,-7,8,11,9,-15,-17,3
54,28,25,2,0,-6,35,101,3
49,30,-10,-2,-5,-4,-75,-90,3
-4,30,12,-11,-19,-19,75,109,3
-20,2,0,1,9,9,-6,-5,3
25,-15,-65,-2,7,7,-2,-71,3
-9,23,5,1,8,0,-31,-99,3
-109,-46,-14,4,3,-4,-38,-92,3
83,74,17,-6,-11,-10,-25,-84,3
-7,-1,3,-2,-12,-2,26,-20,3
-25,-31,5,0,-8,-3,36,50,3
78,-11,-15,9,12,20,-11,-14,3
85,11,11,-3,-8,-10,22,70,3
7,-16,11,7,10,9,-9,-5,3
11,-25,-7,0,4,0,9,54,3
-58,-31,-3,1,6,5,-32,-19,3
-65,-1,6,-5,-7,-17,-11,-95,3
68,-7,26,-2,1,1,26,110,3
-17,16,-12,-1,-1,1,-13,0,3
-3,26,-13,-5,-4,1,31,80,3
-18,-16,-3,0,1,5,-16,-67,3
-69,-10,-10,-2,-6,-7,-2,33,3
39,40,25,4,-1,0,13,-8,3
2,-12,-11,-3,0,1,-24,-12,3
20,-24,-10,-4,-4,-3,4,1,3
45,29,8,-2,0,2,10,-4,3
-9,-14,3,2,7,7,-12,-70,3
2,8,-11,-6,-5,-6,41,28,3
45,-18,-7,0,-2,1,-12,-14,3
-71,-14,4,-1,0,0,-15,7,3
14,4,0,1,-2,-5,7,-17,3
39,22,24,8,6,3,-22,-58,3
-62,-2,-8,-3,3,2,24,35,3
28,5,17,8,2,8,21,92,3
-43,-20,-40,-6,-3,-2,3,-6,3
10,-2,8,-5,-9,-12,-29,-54,3
-32,15,-58,-7,-1,-1,5,-6,3
-29,-41,-3,-1,1,-6,-11,16,3
8,5,1,1,-1,0,17,60,3
75,17,-15,-1,-2,0,0,-35,3
-7,-4,32,5,4,5,-26,-3,3
-24,2,-15,-4,-3,-3,6,-62,3
57,10,17,8,11,15,31,42,3
-101,-1,-23,-14,-12,-22,-27,-32,3
-41,-34,30,7,4,4,7,12,3
26,-16,2,3,3,3,-10,42,3
-62,20,22,-4,-3,-5,9,56,3
-10,-27,-1,6,6,16,8,35,3
6,17,-4,2,-2,0,3,37,3
-9,15,49,1,-6,-5,3,-32,3
-1,-23,-29,-7,-6,0,2,74,3
-7,-14,-10,-3,0,-2,-19,18,3
17,-4,17,3,-4,6,21,7,3
8,-12,1,1,-3,2,0,-8,3
14,19,-27,0,0,0,0,-16,3
24,4,1,-11,-5,-7,-22,-104,3
-60,-31,-10,-1,6,5,18,18,3
24,3,-2,11,15,20,1,-58,3
-25,-8,-18,-17,-21,-27,23,27,3
-14,-6,-40,-3,-4,-8,-16,-23,3
-7,-10,28,-1,0,3,11,110,3
-21,17,-61,-13,-7,-12,23,94,3
14,-6,20,6,4,9,-4,74,3
-71,-9,-2,2,2,1,-14,29,3
7,-4,2,-1,1,-1,25,34,3
-29,20,0,-2,0,-5,-47,-128,3
5,-14,12,2,2,1,-9,-25,3
10,5,8,1,-2,1,7,-9,3
72,25,-1,4,0,1,12,12,3
1,0,8,-3,-6,-7,-1,-22,3
36,22,6,7,11,18,29,75,3
45,0,-3,-7,-10,-11,-55,-71,3
25,24,-54,-5,0,4,-10,41,3
11,9,24,-5,-7,-9,-7,-23,3
5,-6,11,4,5,2,12,17,3
-4,45,31,3,0,11,1,-76,3
25,-11,-22,-13,-11,-15,13,68,3
-2,14,-10,1,0,1,14,53,3
-63,-18,-18,-7,-5,-8,-33,-128,3
-10,-7,27,6,5,4,19,29,3
-25,-3,7,2,-1,-3,-25,-70,3
-28,-8,-8,0,-3,-1,20,61,3
17,-16,19,1,0,-5,-15,-31,3
30,-20,1,8,10,11,-15,-4,3
91,1,22,6,5,5,23,6,3
-33,-8,-24,-14,-11,-19,-18,-13,3
43,18,2,2,-1,0,0,8,3
-32,-44,-4,-1,0,3,17,-3,3
23,28,11,5,6,8,-80,-103,3
11,20,8,2,0,-2,14,-29,3
11,6,-12,-10,-18,-10,-34,-44,3
-43,-8,-8,-6,-12,-8,38,127,3
-37,-7,40,10,2,3,5,-25,3
-70,-42,-71,-19,-16,-28,-82,-37,3
-4,4,-7,0,8,-1,7,-43,3
57,2,18,4,2,0,6,5,3
-44,-24,-29,-5,-1,-9,-10,-16,3
34,11,15,9,8,14,25,19,3
-16,20,-8,-6,-1,-3,7,45,3
11,3,-17,-4,1,-4,-15,-23,3
-17,-19,13,6,8,13,32,79,3
45,21,33,12,16,23,36,79,3
-28,4,-17,-14,-20,-30,-35,-19,3
-9,6,2,-5,-1,1,27,-75,3
8,1,5,-3,-5,-5,-14,-11,3
25,-3,6,7,10,16,6,92,3
-6,-23,31,11,9,13,9,68,3
-55,-13,-12,-7,-10,-15,12,71,3
17,23,8,-5,-2,-2,-1,-50,3
-18,3,16,6,6,8,-16,-62,3
-18,-27,-19,-5,-3,-2,-27,-80,3
21,7,2,5,1,3,4,4,3
-27,-13,-9,-4,-7,-8,65,96,3
47,-13,4,-1,-4,-1,-3,75,3
-33,-2,20,5,4,4,14,13,3
-24,-18,2,2,4,0,-3,30,3
27,-1,-7,4,2,5,-15,36,3
-30,18,-11,-11,-11,-12,6,-68,3
-17,9,-9,-3,-4,2,10,-27,3
0,-4,-22,-1,0,5,-20,-20,3
21,22,1,2,2,2,-16,-63,3
-22,-32,1,-3,-4,-7,-18,-88,3
55,16,1,1,5,4,-16,40,3
30,25,1,1,4,2,15,91,3
-36,-2,-5,-7,-9,-14,3,-14,3
38,10,-2,4,5,8,10,37,3
11,-15,38,7,2,3,9,51,3
55,4,-45,7,11,20,20,55,3
38,-10,1,-3,0,-1,3,4,3
-60,6,12,-2,-3,-5,1,6,3
-23,-8,-40,-9,-3,-6,3,-15,3
-3,9,60,6,2,-2,2,28,3
-1,-11,-12,3,9,10,-17,-33,3
-21,21,-17,-11,-13,-21,-1,-68,3
-4,-41,-2,-1,-2,0,12,30,3
11,16,-6,-3,2,0,-13,24,3
-69,-8,-8,-6,-2,-4,-33,-100,3
-6,-22,-3,-4,-5,-4,4,34,3
27,1,3,-2,5,9,31,76,3
-15,-11,-14,-4,-9,-13,-25,-57,3
4,-12,14,8,6,1,20,127,3
27,3,-12,-5,19,10,-17,-29,3
-10,21,12,4,-18,0,16,44,3
-63,-3,-6,-10,-5,-7,-1,-8,3
8,2,-4,-1,-3,0,15,55,3
-45,-52,26,0,0,-5,-20,-48,3
24,16,-7,-2,4,0,-21,-82,3
22,-25,7,0,1,3,5,0,3
-50,17,-15,-2,-1,5,1,-48,3
-30,-14,3,-1,-13,-9,-12,-1,3
18,2,15,0,-2,-5,15,65,3
9,7,27,3,-3,1,-2,31,3
-14,4,16,-2,-1,-7,-27,-93,3
58,7,12,9,6,13,18,83,3
-9,-6,-10,-1,4,0,-7,33,3
5,2,-36,0,4,2,-5,-66,3
-26,-16,51,-1,-5,-8,-10,28,3
-3,-8,-83,-7,-6,-3,23,94,3
-14,7,2,2,3,2,-19,-46,3
27,-3,10,0,0,-1,16,33,3
41,4,20,5,-1,2,26,51,3
-43,47,-1,1,-1,4,-19,-93,3
-40,-9,-1,-7,-4,-6,7,98,3
11,-4,-11,0,-3,-2,-29,-120,3
-36,3,-14,-2,-5,-2,8,-66,3
14,-9,21,0,0,0,4,49,3
54,3,0,5,7,11,5,63,3
-5,7,18,-4,-5,-5,19,36,3
2,-12,-48,-7,-3,-7,-6,66,3
22,-30,25,5,7,10,60,88,3
-74,16,-7,-5,-6,-14,-84,-128,3
88,-14,23,3,5,8,32,111,3
-34,-14,-71,-12,-8,-10,-31,66,3
0,8,-15,-4,-5,-3,-16,-21,3
2,-22,-13,2,3,6,13,-77,3
-25,27,18,2,-1,2,-6,-22,3
13,9,-6,3,4,3,13,-10,3
18,23,38,2,3,3,-2,-24,3
-20,-22,-9,-4,-5,-9,2,-25,3
-5,-3,-11,1,5,2,-17,-1,3
23,10,21,-2,-3,-4,11,2,3
65,9,-9,0,1,4,7,-6,3
-49,3,17,1,1,0,-1,-33,3
-17,-8,4,-2,-6,-9,-15,-1,3
39,-13,26,5,5,5,12,43,3
-2,9,-12,-4,-3,1,-17,35,3
-6,0,5,1,1,-4,-3,-41,3
-29,-2,-2,-2,-3,-6,24,68,3
38,16,13,3,4,1,-43,-98,3
-26,-42,-23,-4,-10,-3,-8,70,3
4,1,18,3,4,5,13,23,3
-17,15,-37,-8,-4,-5,-18,-45,3
13,4,13,4,2,4,22,23,3
-10,21,47,6,2,-2,-17,-83,3
32,3,-22,-2,-1,0,-6,-36,3
-4,6,1,-2,-2,-1,0,-12,3
30,-2,4,-2,-2,2,-13,-22,3
10,-6,-12,5,6,5,15,29,3
7,13,-4,-5,-8,-10,29,29,3
-8,-18,-20,-5,-2,-3,-21,-41,3
-17,5,-9,-2,-1,-1,-17,-24,3
9,1,-1,2,5,0,-16,-38,3
-37,6,19,3,0,6,28,66,3
3,4,-30,-5,-3,-4,3,12,3
12,5,1,4,2,6,6,-66,3
-43,-10,-7,2,4,5,11,0,3
-19,20,-13,-7,-5,-7,-6,25,3
1,2,25,2,-2,1,4,-4,3
45,9,-3,-1,-3,-1,4,110,3
9,0,-20,-5,-2,-8,-32,6,3
33,-14,-1,0,1,1,19,71,3
-2,-6,17,6,5,5,2,50,3
-6,0,-14,-8,-3,-4,26,37,3
7,0,10,2,0,1,-19,-100,3
18,8,-6,-1,-2,-4,-24,-28,3
-13,-1,31,0,2,-1,-1,-57,3
-26,8,3,4,1,2,17,18,3
40,-6,28,-1,-4,-3,0,37,3
-18,-16,5,2,0,-1,13,69,3
29,3,-2,2,2,4,-28,-116,3
-22,-31,4,2,3,8,-3,12,3
-4,14,-6,-5,-10,-14,54,100,3
-9,-11,-1,-3,-2,0,-35,-128,3
3,-7,10,4,3,2,-5,69,3
44,5,5,2,1,1,18,80,3
9,8,-6,5,5,8,-4,11,3
40,15,55,2,0,1,6,39,3
-3,2,-82,-8,-1,2,-1,-35,3
-38,-19,-2,-7,-5,-7,-12,50,3
6,-3,-2,-2,0,-2,13,-15,3
27,-8,-8,3,2,1,1,40,3
-31,-9,16,-1,-2,-2,0,-37,3
1,3,4,-1,-4,-6,-16,-40,3
9,-2,-3,2,-2,5,4,50,3
-58,-32,-27,-9,-10,-13,-45,-120,3
-19,-13,2,-1,-1,-2,6,48,3
0,-11,-8,-1,0,0,6,1,3
35,-5,-4,-4,-4,-2,-4,-21,3
29,8,-8,2,5,3,-13,-37,3
-32,-17,29,7,7,12,28,-11,3
-29,7,-3,-12,-13,-14,-11,-28,3
54,14,30,9,9,11,-6,-107,3
-52,-26,-71,-10,-3,-2,25,50,3
-71,13,-32,-18,-15,-21,-23,-17,3
26,-5,22,2,3,3,12,-22,3
-14,-2,24,4,4,3,-4,9,3
42,-5,-3,3,5,9,-1,-29,3
12,-2,5,4,0,0,-6,34,3
-26,4,-37,-5,-4,-1,0,8,3
-42,-8,-5,-5,-3,-8,-13,-37,3
4,-3,20,3,2,2,-2,7,3
24,-1,-6,-6,-6,-6,7,98,3
-9,12,12,2,1,0,-10,-68,3
-20,5,-10,-2,-1,0,2,0,3
16,19,9,3,4,3,-2,12,3
22,8,-4,5,3,2,8,21,3
-9,-16,3,-3,-4,-4,-1,2,3
-21,-5,-6,-1,-3,-3,-8,2,3
13,-6,-21,-3,1,2,8,48,3
-76,-9,-20,-3,-1,-1,-24,-60,3
88,-17,9,1,2,3,13,82,3
64,21,-18,2,7,8,8,56,3
32,0,13,2,-2,1,-14,35,3
54,13,9,2,0,2,70,65,3
-21,16,-3,0,-1,-1,-25,-41,3
-10,15,52,5,1,0,-7,-58,3
4,9,10,0,0,0,15,76,3
25,24,8,0,4,2,-3,-21,3
-10,10,3,3,2,0,-9,-69,3
-57,-8,3,-4,-5,-8,0,29,3
-50,15,17,3,0,-1,4,-52,3
26,7,-35,-1,0,-1,-12,12,3
-34,-1,45,-2,-4,-3,11,32,3
-22,12,-32,-1,2,0,-29,-96,3
-27,-12,-6,-5,-9,-10,9,-50,3
7,-1,22,4,3,8,-5,10,3
10,21,-15,-1,-2,0,-4,5,3
-34,1,-23,-7,-6,-6,16,38,3
15,-11,9,3,6,7,19,62,3
13,5,15,3,0,-3,-22,-95,3
-3,-9,-6,0,-2,-1,15,78,3
65,21,-3,1,3,6,6,0,3
-48,13,-20,-9,-11,-18,-34,-44,3
16,7,-4,-1,-2,-6,11,34,3
3,8,-14,-2,3,3,-10,-39,3
23,-9,-12,-2,-3,-1,17,75,3
21,2,-35,-4,0,4,-5,-9,3
4,-7,3,0,1,2,-3,18,3
-29,9,-8,-3,-5,-7,-1,-34,3
4,0,-7,-1,0,-1,-1,40,3
62,-3,36,6,6,10,13,-27,3
-72,-8,-36,-12,-10,-9,-22,-22,3
16,1,-23,2,5,7,22,2,3
-3,-1,12,0,0,0,9,19,3
5,15,0,-2,-6,-6,-9,-8,3
26,3,17,2,-1,3,10,49,3
-5,-1,0,4,2,0,-3,30,3
-35,-8,-18,-6,-3,-3,-22,-29,3
-5,-6,4,-1,2,0,8,-18,3
31,3,12,1,6,0,-6,-47,3
1,0,-8,-3,-1,0,-6,-14,3
19,-22,8,3,4,5,3,-19,3
-68,20,-26,-15,-16,-23,-26,4,3
-5,-14,11,1,0,2,25,29,3
1,-12,-5,2,-1,0,6,42,3
-8,5,0,-2,-3,-5,-20,-52,3
11,-3,42,9,8,11,7,19,3
13,0,1,0,0,0,8,95,3
-12,-1,8,-4,-4,-7,-12,-37,3
-12,-15,-19,0,-2,-2,4,75,3
1,-17,43,3,0,1,-3,-15,3
7,-14,11,2,0,0,-2,15,3
-41,-15,-9,-3,-3,0,3,23,3
19,4,-14,-1,1,-3,-3,3,3
69,-4,-4,2,4,10,8,67,3
-82,10,-7,-8,-8,-17,-43,-128,3
34,-6,6,3,1,2,20,58,3
-24,-5,29,1,-2,0,-7,-7,3
-1,16,-9,0,4,-2,-14,-39,3
36,7,-3,-1,-1,4,4,53,3
-7,0,-6,-3,-3,-4,-9,-31,3
-44,-8,6,-1,-1,-2,7,28,3
-12,5,-17,4,3,7,2,-21,3
-18,0,-9,-7,-8,-6,-14,-46,3
15,5,1,-2,1,-1,-6,-39,3
19,12,11,2,-1,5,4,10,3
-19,13,-19,-5,-4,-8,-1,-21,3
27,-8,12,9,7,14,18,26,3
-14,35,-6,-6,-8,-15,0,103,3
2,5,-11,-5,-7,-6,-6,-14,3
-15,-9,5,4,1,4,18,112,3
-17,-12,17,-1,2,-4,-21,-54,3
34,6,11,6,9,11,11,49,3
-12,10,-8,-4,-6,-10,-40,-118,3
8,-9,-6,-3,2,0,9,40,3
35,7,8,9,5,6,17,50,3
-6,0,-8,-1,2,1,-10,-33,3
7,-6,-10,-4,-1,-3,7,1,3
11,12,0,-1,0,2,6,-27,3
52,19,-1,2,3,9,-16,-59,3
-42,-21,7,-4,-10,-13,12,21,3
5,18,-16,-7,-3,-5,-5,-25,3
5,0,3,2,2,2,1,-93,3
-9,8,2,-3,-3,-3,-5,29,3
-15,-1,-51,-3,1,4,-2,26,3
6,1,3,2,4,3,18,62,3
-11,-6,-7,0,-2,-4,-4,1,3
-4,-37,16,-3,-3,-4,-4,25,3
1,3,0,0,2,3,-6,-58,3
-2,-34,0,4,-1,1,1,4,3
45,22,-5,-3,-4,-2,2,9,3
-9,3,-4,1,-1,2,2,54,3
20,10,20,3,1,6,26,96,3
-38,8,-11,0,2,0,-17,-40,3
-15,26,17,-3,-1,1,-9,-84,3
19,15,-4,-1,3,2,14,112,3
-15,18,-3,-10,-12,-18,-54,-106,3
-7,6,2,1,3,0,28,72,3
25,-6,14,6,3,7,11,90,3
-13,14,-11,-2,-2,-3,-4,-43,3
-45,2,-17,-1,4,5,-15,-119,3
9,-14,-2,-3,-3,-1,-11,-77,3
-6,-1,-4,-3,-5,-4,-20,-8,3
-49,3,-18,-2,-2,0,50,80,3
-5,5,-3,-6,-4,-5,-38,-77,3
2,-5,-7,-4,-2,-3,-24,-61,3
-19,-20,22,4,4,2,15,29,3
31,17,-16,0,1,2,15,72,3
2,-3,29,2,-1,0,12,6,3
-31,9,2,-2,-2,-4,-29,-61,3
17,-11,3,1,4,2,-2,34,3
-6,-10,-3,-2,-2,-4,-7,-47,3
25,6,12,7,3,4,6,21,3
5,-1,-3,-3,-1,-1,28,112,3
14,7,-17,-5,-6,-10,-14,42,3
-21,-7,-2,-4,-6,-11,-47,-39,3
-8,5,13,4,2,0,-2,50,3
-45,-10,-22,-4,-3,-2,24,56,3
2,4,-9,-1,-3,-2,-24,-83,3
12,-2,-5,-1,2,0,12,42,3
-2,-11,5,3,1,1,-7,-8,3
33,4,-1,1,0,3,-18,-49,3
-15,-6,-6,-1,-1,1,27,17,3
5,-3,28,1,-1,0,-10,-66,3
41,-1,-25,-3,1,2,23,39,3
-10,-2,16,1,-1,-1,7,-6,3
4,-3,-11,-2,0,0,3,-23,3
8,-3,4,4,0,5,-43,-58,3
-8,4,-3,-10,-1,-4,28,59,3
25,-15,-16,1,0,3,4,109,3
-35,-1,8,-2,-1,-4,12,61,3
8,-5,-2,3,4,5,4,-36,3
16,-4,14,2,-4,0,7,6,3
13,0,-14,-4,1,-1,-2,-30,3
-8,0,13,3,7,3,-11,-16,3
42,10,-10,-6,-7,-4,29,88,3
14,-5,-11,4,5,12,15,31,3
-18,3,3,-6,-10,-15,-17,-39,3
7,2,15,3,0,3,0,16,3
-15,9,-12,-1,2,-4,5,6,3
-30,-4,30,5,2,1,-7,-3,3
9,-2,-30,1,0,4,-16,-57,3
12,9,-12,-4,-4,-4,41,111,3
-6,4,-13,-3,-5,-7,-29,-86,3
18,0,-6,-3,-2,-1,-15,61,3
-4,-5,21,5,3,4,13,9,3
-5,-12,-23,-6,-3,-1,-2,-1,3
-48,0,-1,-1,2,1,9,40,3
-16,-15,-11,-2,-1,-3,-7,-65,3
-12,7,22,1,-1,-5,-21,-21,3
-21,-8,-12,-3,-4,-4,5,-81,3
-29,-1,2,0,-2,-2,11,46,3
14,1,-2,2,1,0,-5,-38,3
12,-2,18,4,5,6,5,11,3
-14,7,-13,-4,-4,-4,-12,37,3
11,-4,9,1,1,2,23,56,3
-11,3,1,-2,-2,-6,-9,-9,3
4,-12,-2,0,4,5,11,44,3
21,-1,1,-4,-1,-3,-35,14,3
66,14,14,3,3,5,39,35,3
-48,-14,-18,-1,-5,-4,-5,-68,3
45,7,4,-3,-3,-2,26,110,3
21,-5,69,10,4,7,-15,-27,3
-9,5,-56,-8,-3,-4,3,5,3
-2,-18,-7,-1,0,-3,-17,-64,3
-2,5,6,3,0,1,-10,-64,3
6,0,7,4,-1,-1,8,19,3
2,-3,-2,0,0,3,3,-28,3
-2,17,9,-3,2,0,-37,-27,3
-24,-8,-17,-9,-7,-9,36,52,3
-2,5,2,-3,0,1,2,8,3
-12,-8,19,2,1,2,-3,-31,3
55,21,1,2,-1,-1,-40,-43,3
-49,-12,6,-2,-6,-6,-5,-9,3
-56,-9,-28,-6,-2,-3,1,-46,3
-1,4,6,0,-1,-3,-18,-15,3
29,4,3,3,-1,1,26,94,3
-29,2,-7,0,3,3,5,14,3
7,3,-10,1,-2,1,26,-10,3
-3,-7,-14,-5,-3,-9,-38,-33,3
23,1,-6,3,3,6,17,86,3
18,20,38,-2,-3,-1,-17,5,3
-12,-9,-27,-3,-1,-2,-6,-27,3
-10,2,15,0,-1,-5,-9,-84,3
18,4,-17,-4,1,0,16,-46,3
27,-7,-4,2,1,1,3,17,3
12,-6,-16,-4,1,-1,-16,2,3
9,9,10,0,-1,3,-9,-10,3
-19,-8,17,-2,-2,-2,19,-16,3
19,5,-2,3,-2,-3,15,64,3
1,4,4,-6,-2,-1,-9,15,3
6,-6,-13,-2,0,-2,-2,10,3
-14,-1,6,0,-3,-1,7,35,3
17,2,2,5,7,9,-21,-102,3
-19,-5,-17,-2,-2,-8,5,11,3
-60,-13,12,-3,-2,-5,-17,-18,3
44,2,0,0,3,7,52,110,3
-32,-1,-7,-3,-3,-10,-39,-115,3
19,-6,32,8,1,5,9,3,3
10,25,11,-3,-5,-1,-12,-53,3
-22,-13,-30,-4,0,2,-1,23,3
9,-1,-15,0,3,6,4,-16,3
24,2,-1,-2,-3,-6,-11,66,3
13,-4,5,6,5,5,17,37,3
-33,-1,-5,-4,-5,-12,-22,-83,3
2,1,9,3,0,-1,7,54,3
-7,6,-12,0,1,0,-12,-71,3
38,-1,-2,0,1,3,0,-15,3
-15,6,-4,-2,-4,-1,-10,-31,3
3,-6,-5,-1,0,1,12,23,3
3,13,3,2,3,4,-3,-33,3
3,-9,-7,-5,-7,-7,-2,61,3
5,3,10,1,-1,-1,3,30,3
-5,-1,5,-1,-2,-4,0,14,3
13,-11,-21,-2,3,7,18,65,3
-10,7,16,0,-1,0,-6,-67,3
-44,-13,-9,-3,-4,-7,-30,-105,3
19,5,18,3,2,5,27,51,3
24,-10,-10,-2,-2,-3,-7,20,3
7,4,0,-1,-2,-5,18,65,3
1,8,-4,3,4,5,2,63,3
27,-1,9,-1,1,1,-6,-28,3
-24,6,5,-1,-5,-8,-9,-18,3
28,2,-4,1,1,3,-1,-57,3
-18,-3,16,3,0,2,3,11,3
-36,2,-22,-3,-4,-4,-9,-86,3
-27,-5,18,-1,-1,-2,-2,30,3
-7,-6,-4,0,3,2,30,89,3
24,14,18,0,0,0,0,72,3
-9,-24,-21,-7,-2,-1,-11,-27,3
-28,9,10,3,-1,0,3,-50,3
-21,-4,-7,-2,-2,0,-9,64,3
-21,-6,-1,-2,-1,1,9,-44,3
0,-6,16,0,1,1,-12,-22,3
35,11,-2,1,0,4,23,63,3
-30,-10,-9,-8,-3,-8,-28,-128,3
8,7,-4,4,1,2,-2,-17,3
8,0,5,-3,-3,-4,8,56,3
-1,3,-11,-2,-2,-1,-7,-44,3
3,5,9,2,1,3,14,9,3
12,-13,-8,-2,0,-5,15,65,3
1,13,1,0,-2,-2,-4,-66,3
9,-9,-9,0,2,0,-10,-77,3
73,4,-3,0,0,3,3,79,3
-27,1,8,-1,-2,-1,-14,18,3
-7,-19,-35,-4,-2,0,22,61,3
10,15,-1,-2,-1,-2,-33,-14,3
-25,-25,2,-2,0,-3,16,-59,3
17,3,18,3,4,1,10,-17,3
-36,-4,-7,-3,-7,-9,-3,-7,3
3,11,-5,-1,-2,2,10,-12,3
-3,18,-2,3,-1,2,-12,-7,3
12,-3,10,0,1,1,-5,-1,3
-13,4,-7,1,1,0,-1,33,3
-10,-9,11,-6,-7,-5,0,-7,3
1,5,8,1,-1,-1,-7,-12,3
-22,-3,-12,-2,-2,-2,-1,-5,3
-22,1,7,-2,1,-2,-26,-32,3
14,3,13,4,4,9,14,71,3
-7,-8,-19,-4,-1,-5,46,54,3
12,8,8,0,-2,-2,-22,-68,3
-23,-7,3,3,-4,-2,-11,70,3
5,2,-16,-5,2,3,3,-28,3
-19,-2,1,2,1,0,2,67,3
0,-7,-29,-4,-2,-2,8,-16,3
36,20,7,4,5,4,6,-8,3
-6,0,3,0,-4,-4,-11,-27,3
4,-3,1,2,1,1,-20,-64,3
-18,4,-3,0,0,0,5,1,3
34,-7,-5,-2,0,-1,25,72,3
22,-1,27,3,4,3,0,5,3
-8,4,0,-2,-1,-4,2,-7,3
6,-2,4,0,1,3,-7,-54,3
8,3,10,3,2,1,11,33,3
21,1,-7,3,-1,-2,12,89,3
-25,2,13,2,2,3,-27,-88,3
-53,-5,-2,-5,-3,-4,-3,-24,3
-4,-4,-12,0,1,2,-12,-90,3
-24,-11,1,-2,-4,-5,-16,-75,3
23,17,10,0,-4,-5,-13,-21,3
21,7,-2,-3,-2,-3,22,83,3
14,-1,-15,-6,-3,-2,-5,20,3
-8,2,2,1,1,-3,2,31,3
-8,-7,-3,2,2,1,-12,9,3
-15,-9,-13,-3,-2,-5,-12,-45,3
7,-1,15,3,3,3,11,21,3
-13,-3,1,-3,0,-1,-4,-1,3
-25,-8,-12,-3,-1,-1,-16,6,3
33,2,-1,-1,-1,1,20,42,3
-47,-6,-2,-8,-6,-12,-56,-6,3
-14,-4,-11,-2,-3,-4,33,102,3
16,-2,-18,-3,-3,-1,5,7,3
-39,-4,5,1,4,3,-7,21,3
13,7,4,2,0,4,8,-41,3
9,-1,8,4,1,3,-15,-35,3
3,11,4,0,-2,0,35,118,3
61,-1,-2,2,-1,-3,-19,68,3
-37,6,-3,-5,-3,-3,-14,-69,3
-7,0,10,3,2,-1,2,18,3
-3,-16,-10,-1,0,3,12,43,3
5,-9,-12,0,-1,0,-6,-40,3
13,10,36,2,-3,-4,4,10,3
-39,-5,0,-3,3,2,11,-2,3
26,22,3,-3,-1,-1,-23,-74,3
9,-1,-11,-4,-5,-6,16,82,3
34,2,5,3,4,5,27,76,3
-26,0,-11,1,0,2,-25,-120,3
-4,-8,-2,-4,-6,-7,-9,-18,3
-4,4,5,0,1,3,-4,1,3
17,-4,-5,3,4,3,16,21,3
7,4,13,1,-1,-2,4,34,3
-2,1,-13,2,5,4,6,-26,3
5,9,11,1,-3,-2,-18,26,3
-12,-7,-11,-3,-2,-3,17,86,3
13,-4,-12,-2,-3,-5,-19,-26,3
13,1,7,0,0,-1,30,86,3
-60,-10,11,5,-1,-2,2,-25,3
40,1,6,-1,1,2,8,65,3
-3,2,-12,-3,-4,-7,-19,-21,3
2,0,-7,-1,1,2,1,67,3
15,-1,3,-1,1,0,-15,-61,3
3,10,-16,-2,2,4,10,-11,3
-5,-2,-10,-4,-1,-4,6,45,3
17,-3,-2,-3,-2,0,-5,58,3
27,3,-9,-5,-1,-2,3,114,3
-40,-3,-5,-2,-1,-1,-2,31,3
10,-1,-4,-3,0,0,28,48,3
-20,2,4,2,1,2,1,-71,3
-10,-12,-15,-5,-2,1,-5,-64,3
-1,11,2,2,1,3,-12,-69,3
1,-3,1,0,0,1,2,-37,3
-14,-2,3,-2,-1,-5,-8,18,3
14,-3,-3,-1,-1,2,11,-11,3
-10,-7,19,1,-3,-6,-21,-63,3
-3,3,-30,-5,0,3,-17,-76,3
-2,3,14,-2,-3,-6,-26,-21,3
19,5,-3,-1,-2,0,15,22,3
3,-3,-4,0,-1,-1,9,65,3
10,2,-7,-1,-1,-1,2,20,3
-34,-9,-14,0,0,-1,-22,-66,3
6,11,13,6,2,2,15,29,3
-4,-12,-8,-5,-4,-2,-1,-68,3
-61,-8,6,-2,-3,0,-1,88,3
11,-3,-5,-2,-3,0,13,41,3
7,2,13,1,2,-1,-4,16,3
15,-5,-26,-1,-1,-1,-9,66,3
5,10,-2,-3,-5,-3,-8,-10,3
18,3,2,-1,-1,-2,11,-1,3
4,-1,1,0,0,-1,-15,-15,3
18,-8,0,1,-1,-1,7,7,3
3,-1,1,4,2,0,-10,-40,3
-10,-14,-3,-1,-2,0,4,18,3
20,8,10,2,1,1,-8,-20,3
-30,0,11,-2,-3,-1,3,-26,3
26,0,11,7,1,3,0,-63,3
-20,1,8,-2,-4,-4,-21,-85,3
-33,-4,-5,-4,-1,1,-2,-18,3
14,3,1,0,-2,0,2,-5,3
24,4,5,0,2,4,11,8,3
0,-3,0,0,-2,0,-4,14,3
21,-1,-1,-2,-2,-1,-3,15,3
-8,1,-21,-7,-4,-4,-2,-49,3
7,8,-2,-3,-6,-4,12,48,3
20,-7,-10,-3,1,1,-8,-48,3
5,-2,-10,0,-1,-1,-2,20,3
-17,3,4,-2,0,0,-5,-16,3
-3,-6,-5,-6,-2,-2,-3,3,3
16,8,-1,2,2,2,12,55,3
-32,-3,-2,-2,-1,-3,-4,-17,3
69,-1,2,3,1,1,-19,-78,3
9,-2,7,-1,-2,-2,0,13,3
-36,-9,-28,-7,-3,-6,-4,-16,3
5,3,18,0,0,0,0,-30,3
-10,0,6,2,0,1,11,31,3
12,2,4,1,3,2,3,-30,3
-3,3,11,3,-3,-3,-14,-60,3
-9,-12,3,0,2,-3,-3,-54,3
30,18,-17,-1,0,-1,-3,19,3
-35,-1,4,-4,-3,-4,0,13,3
-20,-12,-2,1,0,3,5,6,3
-6,-3,-12,3,-1,-2,-2,-10,3
34,1,14,-3,1,1,-5,38,3
-47,-5,-6,-1,0,-1,-7,-53,3
11,-1,-4,-2,-4,-5,4,0,3
5,6,-5,0,2,1,9,43,3
-14,-6,3,-1,-2,-4,15,46,3
13,-6,-6,0,1,-1,-1,71,3
-10,1,1,-2,2,3,-12,-49,3
0,2,2,-2,0,1,6,57,3
-29,-3,-12,0,0,-1,7,4,3
-5,-8,-18,-5,-5,-4,-25,-72,3
0,3,8,2,1,1,1,57,3
12,2,-6,-4,-3,-4,20,54,3
-40,-5,1,0,-1,-2,-17,-24,3
17,-4,-3,0,-2,3,14,43,3
2,25,20,5,5,4,-15,-43,3
8,-12,-34,-8,-8,-8,-7,24,3
-9,4,16,0,0,1,3,43,3
-25,-2,2,-1,-1,-1,0,-49,3
27,-3,1,2,3,3,22,64,3
-2,4,11,2,3,1,-12,-48,3
7,1,0,0,-2,-1,-1,-20,3
34,5,1,5,4,4,-4,-21,3
9,-1,-11,-6,-6,-1,-4,3,3
-5,8,-2,-3,-1,-1,22,49,3
-13,-8,-3,-1,-1,-2,-13,-70,3
9,3,5,3,3,1,-1,-40,3
-5,-4,5,0,-2,0,2,41,3
-19,0,-26,-5,2,1,-3,-86,3
4,-1,-14,0,-2,-2,-10,19,3
3,3,23,2,-1,0,10,26,3
-45,-10,-20,-4,-3,-5,-3,-15,3
4,1,5,3,1,5,-3,44,3
-8,1,15,-1,-2,0,1,-20,3
-1,-4,-9,-5,-1,-8,6,74,3
5,0,8,4,3,1,13,-28,3
-18,-9,12,2,-1,-4,-16,43,3
-30,9,-12,0,4,5,-10,-45,3
-8,-6,-7,-3,-6,-7,10,53,3
2,5,7,1,1,1,10,26,3
39,6,5,4,4,6,2,-16,3
-6,-11,1,-2,-4,-4,-14,-60,3
9,1,-1,-4,-2,-2,3,42,3
-8,5,-4,-2,-1,2,-8,-43,3
-19,-8,-1,0,0,-1,1,-9,3
18,-4,-1,-4,0,-2,17,76,3
8,-4,21,7,4,3,0,48,3
-9,5,-15,-3,-2,-3,-7,2,3
3,5,6,-3,-5,-4,-10,-55,3
2,-5,0,1,0,0,13,85,3
-5,9,7,1,0,0,-7,-38,3
36,-5,-13,-1,0,2,16,81,3
-8,4,-5,-3,-5,-4,6,-47,3
-33,-3,1,0,1,-1,-12,-32,3
33,2,-7,0,-1,4,5,15,3
-45,-6,7,3,2,-3,-25,-63,3
2,7,0,1,0,1,-10,16,3
24,4,32,-1,-2,-4,13,6,3
-20,-7,-6,-3,-4,-2,-12,-53,3
18,5,7,2,1,4,18,24,3
-25,-7,-1,-2,-1,-3,-4,-19,3
44,7,-2,1,3,2,-7,-25,3
-16,-6,-1,0,0,-2,-5,43,3
4,0,9,-2,-4,-4,20,29,3
8,-1,-11,-2,-1,-2,2,16,3
5,0,-4,3,-2,0,-19,-44,3
30,9,14,5,6,7,-1,64,3
8,-6,-6,-3,-3,-3,0,-30,3
17,-2,-3,-3,0,1,-2,-9,3
-12,-13,-14,0,0,-2,11,86,3
14,2,-4,-4,-2,-4,-19,-84,3
-58,-8,8,-1,-2,-2,1,15,3
-4,5,2,0,3,6,5,-79,3
38,-9,-19,-3,-6,-6,8,55,3
-7,0,-5,-2,-1,-2,1,41,3
38,1,-2,0,2,0,-14,22,3
-13,1,13,1,-1,-5,-2,-46,3
-20,6,13,-1,-1,1,-1,-7,3
-5,-1,-12,-1,0,0,11,28,3
7,5,14,3,0,0,-15,-65,3
15,-5,9,-1,-1,0,-6,36,3
-27,-4,-16,0,2,-1,-4,-51,3
5,6,-11,-2,-3,-3,11,20,3
-34,-5,4,2,1,2,3,-13,3
-14,-6,-4,0,-1,0,-5,6,3
4,6,7,1,3,3,14,64,3
-16,-8,-7,-3,-6,-4,-46,-118,3
19,-11,-13,-2,-2,-4,15,77,3
5,9,7,3,3,6,0,-22,3
-21,2,-9,-6,-6,-7,9,28,3
14,3,-3,-1,0,3,10,25,3
2,10,33,2,-1,-1,-13,-13,3
34,-10,-17,-3,-2,0,-1,-3,3
-38,-7,7,1,2,2,-15,-64,3
-18,-7,-29,-6,0,-6,2,-43,3
-16,2,-6,-1,1,2,-2,-6,3
4,2,-1,1,-1,0,9,68,3
4,-1,-5,0,5,2,2,10,3
-7,-1,28,5,3,2,2,-62,3
12,5,-33,-7,-2,-2,-4,-30,3
1,-5,-8,-5,0,-1,19,39,3
-4,-4,-7,-3,-5,-7,-6,0,3
-13,-3,8,2,0,1,7,32,3
37,7,5,-4,1,2,5,24,3
-11,-1,1,1,0,-1,-9,-6,3
12,2,-4,-1,0,0,-12,-55,3
32,6,1,0,2,5,20,65,3
-16,-8,-6,-3,-2,-6,-23,-25,3
-4,0,-4,-3,-4,-4,-17,21,3
2,4,4,0,-1,0,2,21,3
52,11,1,2,2,5,8,-1,3
12,-1,0,2,1,0,20,115,3
46,1,-9,4,4,3,-10,-48,3
-12,-5,20,2,-4,-5,8,-18,3
-6,9,-18,-4,-1,2,24,69,3
14,4,7,1,1,2,1,-13,3
-7,-3,-4,1,1,-3,-4,-11,3
-30,-17,-2,1,3,1,-12,-11,3
-18,9,3,-2,0,-1,4,39,3
14,3,-8,-3,-4,-4,2,-6,3
-16,2,-10,-5,-3,0,-4,10,3
11,-5,-7,0,-1,3,8,11,3
-31,-4,12,-1,-2,-2,-14,-43,3
-14,1,0,2,-1,-1,4,-11,3
-39,-2,12,0,0,-1,6,30,3
9,8,-4,-1,1,1,-1,-14,3
-21,-7,1,1,-2,-2,-8,-21,3
17,-3,0,-1,1,-1,-1,-8,3
-22,-8,-11,-3,-5,-5,-8,-52,3
-1,3,4,1,-1,1,3,17,3
5,-4,0,1,0,1,-7,39,3
-8,-1,27,5,1,-1,-19,-57,3
-4,1,-7,-1,-7,-2,20,-24,3
10,0,-15,-6,0,-1,1,36,3
11,-18,-7,-5,-5,-6,-11,-74,3
-20,-13,-9,-1,-2,-3,-21,-40,3
14,11,10,3,5,2,6,78,3
-6,8,15,3,0,3,-6,-69,3
15,13,0,0,2,1,6,45,3
-2,3,-10,-3,-1,1,6,26,3
6,2,2,1,1,-1,3,28,3
-7,2,-2,-2,-2,-1,-18,-79,3
2,-2,1,0,0,-2,22,100,3
-1,3,1,-2,0,1,6,-34,3
20,1,6,0,0,1,-4,-4,3
-1,-2,-2,4,1,-1,-3,20,3
-1,15,13,-5,-2,-2,-8,-47,3
2,-8,-17,-3,0,0,7,35,3
29,0,4,-3,-4,-3,-1,16,3
-3,0,-1,-3,3,0,4,31,3
11,-9,-28,-3,1,3,0,21,3
-4,-3,-7,-3,-3,-6,9,61,3
-60,-6,2,0,1,-2,-9,-73,3
24,4,12,2,1,1,8,27,3
0,-9,-5,1,0,-1,-4,-58,3
9,2,1,2,2,4,3,15,3
13,0,-10,-4,1,0,-14,-11,3
21,-7,-21,-3,-1,-2,-1,22,3
-19,-8,-3,-2,-4,-5,6,-31,3
1,0,0,1,0,2,3,20,3
-7,-4,8,1,-2,-1,-19,-70,3
5,4,0,-1,-3,1,22,83,3
8,4,7,3,2,1,-12,5,3
-7,0,-5,-1,1,0,1,27,3
-10,-2,0,-1,-3,-4,-4,-35,3
-1,12,21,2,-2,-1,-3,5,3
-12,-3,-17,0,-1,0,-2,-3,3
40,6,-2,0,0,1,3,-28,3
19,1,5,-2,-2,-1,-2,65,3
25,-3,-2,-4,2,-1,0,-3,3
-24,-9,3,-3,-3,-5,-6,-23,3
-4,-1,11,2,0,-1,-3,-15,3
7,2,-3,0,3,2,10,4,3
-17,-8,-13,-3,-4,-5,-15,-27,3
2,5,8,1,0,1,1,-7,3
11,2,-1,2,2,3,-3,25,3
-14,-11,-4,-1,0,-1,15,31,3
6,21,29,1,1,-1,2,25,3
13,-17,-22,-3,0,-2,-11,-24,3
3,2,1,-2,-3,-3,-6,-48,3
-1,0,1,1,1,3,15,94,3
1,-2,-6,-2,-3,-4,-13,-128,3
-6,1,-5,-4,-2,0,-7,35,3
-1,0,-1,0,-1,0,7,1,3
-2,0,1,-4,-3,-3,5,60,3
-8,-5,-1,1,-2,-4,4,53,3
7,-1,-14,0,2,2,5,12,3
-24,13,7,-4,0,1,-11,-31,3
-2,6,1,1,0,-2,12,-31,3
-3,-3,-3,-1,-3,2,5,25,3
12,2,9,1,1,0,3,15,3
-22,-7,1,-1,2,-1,-4,-12,3
-17,-6,9,2,0,1,-12,-57,3
0,-2,-12,-7,-4,-6,-7,1,3
8,-12,10,2,3,-5,-24,-94,3
-7,4,14,-2,-4,-2,5,56,3
8,-3,-8,3,3,2,-10,13,3
-6,-2,-29,-3,2,4,21,51,3
-3,9,12,1,-1,3,-6,-16,3
-5,0,-1,3,0,-2,21,28,3
-10,-3,1,0,0,-1,-25,-64,3
15,2,6,0,-1,0,9,32,3
-2,5,-4,-1,1,2,27,115,3
2,-3,-10,0,1,2,-19,-120,3
-3,-4,6,-2,-4,-1,13,108,3
-7,-1,-2,-1,3,3,-11,-52,3
5,-5,8,-1,0,0,22,99,3
30,-4,-2,-2,-5,-5,-20,-31,3
6,8,-3,1,1,1,18,51,3
-44,-14,-5,-4,-3,-3,-16,-31,3
-1,1,5,0,-1,0,-12,-44,3
36,-3,-11,-3,1,0,20,68,3
-10,-2,-5,-3,-2,-1,-26,-128,3
5,0,3,2,0,0,2,38,3
-6,11,43,7,-1,-1,2,11,3
-27,-13,-47,-10,-2,-1,-5,-14,3
16,5,1,-2,1,-1,4,13,3
-2,-4,-12,-1,1,0,7,-7,3
6,8,8,-1,-1,-2,-12,-52,3
-12,0,9,1,-1,1,10,81,3
22,6,21,-2,0,0,3,-16,3
-15,-14,-18,-3,-3,-3,6,-68,3
-71,-10,-17,-7,-5,-8,-11,-17,3
9,-1,1,-2,-2,-2,2,45,3
13,5,-9,2,2,3,-4,7,3
12,1,11,3,2,0,-10,-1,3
-5,7,-3,-3,0,1,14,23,3
-35,-4,20,0,-6,-11,-34,-128,3
-20,-5,-15,-2,-2,-1,4,56,3
5,5,6,0,1,0,-1,17,3
14,-2,-4,1,1,0,-1,-4,3
8,-9,-11,1,0,1,0,45,3
-1,1,1,-5,-1,-5,-3,-33,3
-31,0,4,-1,-3,-3,-14,-10,3
23,7,5,2,2,4,23,36,3
-10,-5,-9,-7,-3,-3,-5,-68,3
51,6,-4,3,1,2,-2,36,3
40,-5,-9,-2,0,0,6,-38,3
-1,-3,10,-2,-4,-1,-16,-53,3
-33,4,3,0,0,-1,12,56,3
9,1,-9,-1,0,2,17,32,3
3,-5,-4,-3,1,-1,-15,-14,3
5,-2,-15,-3,-2,1,6,2,3
10,2,7,1,3,1,-22,-61,3
-36,-10,-1,-2,-6,-5,7,69,3
-21,-1,12,2,4,-5,-7,-61,3
-7,13,-8,-1,0,6,14,50,3
-2,-3,-5,-5,-6,-4,10,2,3
-32,-9,-19,-4,-2,-2,-38,-107,3
5,16,27,5,-1,1,13,27,3
8,4,6,1,1,-1,-24,0,3
16,3,0,3,4,4,13,56,3
4,7,6,1,-1,-1,8,-6,3
-20,-7,-8,-1,-3,-2,-3,-1,3
36,-2,-11,-2,1,-1,-8,-36,3
-47,0,12,2,0,4,11,36,3
-41,-8,2,-2,-2,-6,-6,-49,3
-20,4,8,2,5,5,-11,-1,3
28,-9,10,0,-7,-7,31,-17,3
-70,-17,-25,-11,-9,-17,-52,-86,3
71,6,10,7,8,14,47,80,3
42,17,6,-5,-2,-1,-9,79,3
-53,-12,29,5,1,-1,-10,-9,3
5,-4,-19,4,2,-3,12,5,3
1,2,-18,-5,0,0,-10,-41,3
24,4,-7,-2,-5,0,11,29,3
6,-4,-22,-3,1,1,-5,-12,3
34,7,22,4,3,3,8,24,3
-38,-3,10,-1,-3,-3,-10,-29,3
-5,-9,-12,-1,0,1,7,-7,3
6,2,-2,0,1,0,-10,34,3
-31,-5,-3,-1,0,2,5,-13,3
58,11,25,5,6,6,12,-43,3
-49,-7,-17,-10,-10,-14,-19,-17,3
65,13,-12,3,5,10,17,83,3
6,5,-8,-4,-2,-2,-7,18,3
-1,0,0,2,-1,2,-12,-74,3
2,-4,1,2,-1,-1,12,8,3
3,-1,-4,1,0,2,20,87,3
33,2,9,4,3,2,4,63,3
-61,-4,-6,-5,-9,-12,-12,119,3
16,-2,-4,2,2,6,13,73,3
-24,-4,-7,-4,-3,-7,-13,-48,3
29,4,10,2,4,9,13,-15,3
-4,-5,-3,-2,-3,-7,14,62,3
13,-6,-3,-1,-3,-5,-31,-14,3
-49,-9,-7,-4,-3,-5,-4,-53,3
30,3,7,2,3,0,-5,-4,3
-33,-2,-6,-5,-4,0,3,16,3
-4,0,-10,-1,0,0,11,-24,3
16,5,6,-3,-4,-3,-16,25,3
9,-3,-4,1,0,1,-4,-87,3
-14,-3,-8,-4,-4,-4,-13,-85,3
21,-8,-9,2,3,3,21,13,3
1,18,33,-5,-5,-6,-22,-55,3
25,14,3,-2,3,1,7,45,3
6,-2,-1,1,-1,-2,-22,-55,3
16,9,19,0,1,2,7,20,3
-27,-9,-12,2,2,1,-4,-68,3
35,13,12,2,2,5,11,62,3
-9,-22,-11,-4,-3,-3,3,-11,3
-18,-2,8,0,-3,-2,-18,-64,3
4,-14,-1,1,2,1,6,-3,3
0,11,-11,-2,-2,0,11,30,3
-29,-3,-1,1,1,-1,-15,-68,3
22,1,-6,-3,-3,0,4,47,3
20,-3,-3,0,1,0,7,15,3
-21,-4,12,0,0,1,9,-30,3
-24,6,0,-2,0,0,-15,-6,3
-31,-2,0,-2,-2,-1,-5,-64,3
1,-24,-25,-6,-3,-4,-17,-35,3
13,8,3,1,2,1,10,7,3
-8,0,0,1,2,1,8,55,3
-25,1,2,-3,-4,-5,-3,7,3
-15,0,-15,-1,0,1,-1,29,3
-15,-1,18,1,-1,-2,4,30,3
33,1,-2,-1,1,-1,4,8,3
31,-5,13,5,3,1,6,40,3
-14,10,-13,-4,-1,0,-1,16,3
2,-8,-6,3,2,4,0,-61,3
9,17,28,0,-4,-7,-23,-53,3
-14,2,-4,-3,2,1,5,14,3
-7,1,-1,-2,-5,-6,-5,2,3
-15,-3,-4,0,3,0,-2,-56,3
7,-1,-10,-2,0,-1,9,84,3
11,-1,-4,1,0,3,-1,9,3
-5,-4,-22,-3,0,2,2,-2,3
-7,0,-13,-3,-4,-3,-3,26,3
18,-7,-1,1,-1,-2,1,-66,3
40,17,7,0,1,1,2,65,3
36,-7,0,3,3,1,10,40,3
-72,-5,-4,-3,-8,-10,-28,-30,3
-5,-29,-35,-4,-3,-2,-3,33,3
21,11,-5,1,7,6,13,36,3
-1,2,5,-1,-2,0,-7,-59,3
25,3,2,-2,-1,-2,-15,-54,3
3,-7,4,0,-1,-1,11,57,3
-12,-10,-2,0,0,-1,-9,-25,3
16,6,8,0,1,2,12,9,3
-33,-11,-4,-2,-1,-4,-12,35,3
-10,5,3,-2,-2,0,5,-33,3
0,-7,-10,-3,-5,-4,-2,-21,3
-6,7,8,0,4,2,5,36,3
59,-2,3,-1,0,1,3,111,3
-24,3,0,-3,-2,-1,0,0,3
-12,-3,-3,-2,0,-1,-6,-11,3
2,-9,-28,-3,-1,0,9,-1,3
17,7,10,0,0,1,7,4,3
23,-4,-1,5,3,4,17,94,3
-24,16,30,-1,-1,0,-14,-105,3
-25,-11,5,-1,-2,-9,-5,61,3
-5,-4,-9,-3,-2,-2,0,-49,3
19,1,2,5,3,2,2,7,3
-33,10,2,1,-1,2,11,37,3
-6,-10,6,-2,-2,-2,-47,-116,3
-28,0,-3,-7,-8,-9,2,62,3
-5,0,7,-1,-1,-1,2,-43,3
22,-13,-15,1,0,-1,-5,2,3
-5,6,5,-1,-1,-1,14,-7,3
-12,-7,-8,0,0,-2,-8,-26,3
9,5,-5,-2,0,2,4,12,3
18,1,6,0,-2,-2,5,39,3
12,-6,-18,-2,-1,0,-6,-21,3
23,-2,4,0,0,1,14,37,3
5,-2,7,1,0,-2,-22,-84,3
11,5,-3,0,1,1,3,2,3
-11,-2,25,6,1,0,4,-15,3
-8,0,-21,-4,-3,-2,4,36,3
-4,0,2,2,1,0,0,-25,3
-2,-11,-27,-7,-1,-2,-2,-16,3
13,15,33,1,1,1,0,-14,3
-11,-12,3,1,1,4,-1,22,3
-18,5,-1,0,-2,1,15,90,3
13,-13,-5,-2,-3,-5,-8,-75,3
5,1,-3,1,0,-1,17,92,3
4,0,4,0,3,4,-13,-39,3
16,-1,3,-3,-1,0,21,106,3
7,-10,-9,-2,0,-1,-26,-85,3
-46,-4,-7,-5,-6,-7,11,41,3
17,2,1,5,2,5,3,-11,3
1,2,11,0,0,-4,-18,-23,3
-5,15,30,1,0,2,12,94,3
18,1,-16,-4,2,4,10,20,3
-16,2,-7,-2,-1,-5,-2,-7,3
-4,4,-7,-3,0,0,-2,-37,3
1,-4,-7,-1,2,0,5,22,3
28,4,5,1,2,2,-2,12,3
-24,1,4,-1,-2,-3,-4,-27,3
-30,-3,-2,0,0,3,-4,-28,3
13,-4,-3,1,-2,-5,-5,-11,3
-12,0,12,2,-1,0,-3,-21,3
30,3,-4,-1,3,5,2,-41,3
-6,-10,-12,-1,-4,-4,-7,-40,3
-16,-1,-1,2,1,1,14,102,3
-12,-11,-13,-1,-1,-1,-19,-46,3
15,7,19,1,-2,-4,9,32,3
-1,9,11,0,1,3,11,57,3
-7,-1,-6,-2,-3,0,9,21,3
10,5,-1,0,0,0,-6,-4,3
9,2,2,1,0,1,-3,-29,3
9,-2,-6,-2,0,-4,-1,-11,3
-12,-4,-6,0,1,0,-5,0,3
-28,12,26,3,0,-2,-9,-79,3
7,1,-12,0,2,-1,10,82,3
10,5,-2,-4,-2,-2,4,-1,3
7,1,-11,-4,-4,-4,-38,-78,3
1,-8,-6,0,4,4,6,14,3
-1,-2,-8,-6,-3,-2,14,60,3
-49,-3,-2,-3,-3,-5,-10,-38,3
7,-9,-6,-1,1,1,9,35,3
-4,0,-4,-2,-2,-1,-2,-10,3
-26,-5,2,1,0,1,-8,-96,3
16,-2,-7,-3,-5,-3,-16,-20,3
-17,-12,1,1,-2,-4,-3,-32,3
-36,2,-18,-5,-3,-3,2,18,3
14,0,6,0,1,2,-9,-45,3
16,3,0,-4,-3,-2,-4,59,3
-21,-2,1,0,-1,-1,1,16,3
16,11,10,1,-2,-3,2,-19,3
4,-9,-15,0,0,2,14,75,3
12,4,0,-2,0,3,-4,-47,3
13,1,-10,-1,1,1,6,48,3
-20,-4,-1,-6,-2,-6,-18,-44,3
-5,0,3,-1,-2,-1,0,12,3
18,-1,21,4,2,1,-2,27,3
-6,3,-12,-2,-2,3,3,-41,3
19,5,-2,-2,-1,-1,2,119,3
-5,-11,-17,-2,-2,-5,-11,5,3
1,10,-2,1,1,2,1,-20,3
27,9,10,-2,3,0,12,32,3
18,-6,-4,-1,-5,0,-4,-9,3
-22,5,9,0,-3,-2,11,-7,3
16,-3,-5,1,1,-1,-3,2,3
-53,-8,-1,1,-1,-3,13,38,3
11,-2,-8,-3,0,-3,-12,-41,3
17,1,5,1,2,1,2,45,3
-3,1,-3,-1,-2,-2,-22,-48,3
27,4,6,3,3,4,20,59,3
10,5,-3,-2,0,-3,0,15,3
-6,-11,0,-3,-2,-2,-3,-6,3
14,7,11,2,4,4,7,30,3
-19,-14,-22,-2,-2,-4,-25,-113,3
-75,-17,-1,-5,-4,-5,6,22,3
21,12,2,-3,1,0,-4,-11,3
18,2,4,1,1,4,23,22,3
-16,-1,3,-3,-8,-11,-32,2,3
-2,-5,-7,2,3,3,7,38,3
-10,-4,13,2,0,-4,-13,-24,3
-13,-1,-11,-5,-2,-1,2,-13,3
29,7,5,1,0,3,10,15,3
40,1,0,3,0,-2,-3,-18,3
-25,-2,12,4,0,-1,-7,-63,3
-11,9,-5,-1,0,-3,-29,-57,3
6,-3,5,-2,-2,0,34,1,3
-1,8,-6,-1,-3,-5,-33,-35,3
44,2,-1,0,2,3,9,77,3
-6,-16,-20,-3,-2,-2,22,74,3
6,12,6,-1,0,1,-11,-19,3
21,7,5,4,3,8,18,40,3
-20,0,-4,-1,-4,-8,-8,-67,3
-15,-7,3,2,0,1,1,13,3
5,-1,0,-2,-2,-2,14,90,3
34,8,1,2,4,5,12,3,3
3,-5,-13,-3,-2,-2,-6,-2,3
10,11,45,4,0,0,14,26,3
10,2,-5,-2,-1,-5,-42,-126,3
-4,3,8,-2,-5,-1,7,61,3
-14,-2,-7,-5,0,-1,-15,-85,3
-7,-3,-7,2,0,-1,15,47,3
7,4,6,1,0,1,-11,-45,3
-16,-5,3,-2,-1,-3,5,-24,3
-7,0,-1,-1,-3,-1,-4,3,3
3,-4,0,0,1,3,-8,-11,3
-2,-8,-21,-6,-1,3,26,68,3
-53,-10,-10,-2,-5,-10,-37,-62,3
-6,-7,-6,0,-2,0,7,41,3
-4,-2,-10,-1,2,1,-6,-31,3
-7,-3,5,0,-2,-2,4,24,3
-18,5,6,0,1,2,-2,-56,3
-4,1,-2,-2,-1,-2,-1,27,3
-11,-3,-1,1,-2,-2,-17,-38,3
-16,-2,2,0,0,0,7,20,3
16,-3,-3,-1,1,3,25,86,3
42,7,3,3,1,3,-12,-33,3
-29,-8,-16,-8,-3,-7,17,74,3
-2,3,4,1,0,-1,-4,-29,3
7,-3,-4,-1,0,2,4,-1,3
5,-5,-23,0,0,2,4,42,3
27,-1,2,1,1,1,-1,10,3
-6,7,14,3,2,2,-10,-45,3
6,-13,-17,-5,-4,-4,26,106,3
4,12,4,-2,3,0,-13,-87,3
7,-5,-7,-2,-2,-3,20,83,3
16,-5,-6,-3,-1,-2,-13,47,3
5,-1,6,-1,-4,-2,13,46,3
-4,3,8,3,1,2,-6,-6,3
-5,4,-4,-1,0,-1,1,-27,3
-2,-4,5,0,0,-1,-7,14,3
-29,-1,-13,2,0,1,-13,-62,3
-7,7,-1,-2,-2,-4,6,45,3
14,0,-1,-2,-3,-1,-8,-46,3
-29,-3,-10,0,-3,1,-1,-35,3
38,4,4,0,2,3,21,79,3
-18,-2,4,-1,-1,-5,-15,-56,3
-37,-12,2,2,0,-2,-10,24,3
4,-4,-9,-5,0,-3,-6,-11,3
9,6,6,2,4,2,10,4,3
-3,3,2,0,-1,0,10,17,3
21,6,14,2,1,2,-11,-35,3
-2,-1,1,2,0,1,6,-25,3
-12,-2,0,-4,1,-1,-16,-40,3
-2,-4,9,-2,-4,-2,12,20,3
4,2,-6,0,-1,0,-1,-27,3
-7,1,-7,-1,-1,2,1,0,3
7,3,-2,0,-1,-1,6,31,3
-7,-4,0,2,1,-1,-19,-40,3
5,0,-6,-2,-1,-1,-6,-21,3
-1,2,1,-1,-1,-2,5,15,3
22,2,11,6,2,1,3,-2,3
-1,-3,-11,-5,0,-3,6,39,3
2,3,-5,-1,-1,-1,-10,-43,3
-15,1,6,1,0,0,5,23,3
22,0,-3,-2,-2,2,-16,-65,3
1,1,7,1,0,1,32,127,3
1,-9,-25,-6,-4,-1,-35,-96,3
7,10,7,1,1,2,13,55,3
6,-2,20,2,0,-4,0,85,3
9,1,-19,-3,1,4,-18,-69,3
15,-7,32,2,-1,-2,36,111,3
-18,9,-7,-7,-4,-5,-8,-79,3
-15,-1,-4,-1,-2,0,-15,-19,3
50,-4,5,1,0,-2,4,49,3
-14,7,8,5,0,2,2,31,3
-6,-11,-3,-4,0,-3,-7,33,3
12,-1,-6,0,-1,-2,4,-33,3
-33,2,2,-1,-2,-3,-5,-64,3
-3,-6,-14,1,1,1,8,53,3
14,-2,1,-1,-3,-3,4,39,3
4,5,1,0,1,1,0,-10,3
-21,-13,-3,-1,-1,-1,3,39,3
7,13,2,-3,-1,-2,-12,-49,3
0,-3,3,2,0,1,5,7,3
-18,0,3,-1,-1,-1,5,-11,3
14,1,-5,-2,-2,-2,13,46,3
7,-2,-1,1,1,0,-7,-64,3
-4,0,1,0,-1,3,9,35,3
18,1,10,-1,-1,-2,-20,-70,3
-19,-7,-13,-5,-6,-6,-12,10,3
10,3,10,0,-2,1,8,15,3
11,-1,-3,-1,0,-1,0,-21,3
19,-4,5,1,-2,-3,3,46,3
-4,4,1,0,2,6,-3,-44,3
-4,-1,-3,-4,-5,-3,5,18,3
-7,-2,-8,2,-1,-1,-3,-67,3
-15,1,-3,-2,1,0,4,33,3
9,-7,8,6,2,2,10,17,3
-18,3,-16,-2,-4,-3,-19,-33,3
24,0,2,-2,1,0,-5,9,3
-4,-3,-11,-3,-1,0,-6,-16,3
-1,5,1,-3,-1,3,7,15,3
-6,-4,-10,-3,0,1,3,-40,3
2,2,1,1,-1,-1,-5,6,3
-10,-3,-4,-1,0,-2,3,8,3
-12,-1,3,1,-2,-2,-8,-34,3
4,-1,3,-1,0,-2,0,-15,3
15,2,17,2,2,2,8,-3,3
-12,-2,-23,-2,-1,1,-11,45,3
4,-1,0,-4,-5,-6,15,52,3
-52,-5,-6,-6,-5,-7,-19,2,3
-21,0,2,2,0,1,2,4,3
-14,-1,21,6,2,2,-1,-54,3
-12,-3,-13,-2,2,-2,-8,-43,3
23,1,0,0,1,-1,9,50,3
9,-4,-17,-3,1,1,3,25,3
-8,7,12,-1,-1,-1,-3,-18,3
-31,-4,-3,1,1,1,-18,-46,3
-7,-8,0,-3,-1,0,12,97,3
-9,-1,0,2,-2,-1,10,-28,3
16,2,-8,-4,-3,-1,8,12,3
29,4,8,2,2,3,0,33,3
-2,2,-3,0,1,1,-18,-85,3
-7,-7,-1,-1,-2,-2,0,57,3
-12,-4,-11,-1,-2,-1,2,-18,3
-8,3,-5,-5,0,-1,-7,-81,3
-9,-6,-1,-4,-3,-2,-1,-3,3
8,2,2,0,0,0,-3,39,3
-25,-5,-10,-2,-1,-3,-16,-50,3
8,5,14,1,-1,1,27,17,3
13,2,0,3,2,1,-8,-25,3
-7,-1,-1,-3,-1,-1,1,-4,3
14,-1,12,2,3,2,-5,-10,3
3,0,-4,2,2,2,1,22,3
10,4,-7,-1,0,3,17,54,3
-8,2,3,-1,-2,-2,-9,-31,3
0,-5,-8,-1,2,3,19,14,3
-19,-3,6,1,-3,-4,-28,-102,3
1,1,-1,0,1,3,7,11,3
9,3,0,0,-1,-1,-7,5,3
-1,1,2,-3,-1,-1,2,-3,3
8,1,-8,0,0,-2,9,8,3
7,-1,-1,0,-2,0,-10,-6,3
-30,4,6,-3,3,2,-10,-62,3
10,-2,-4,-1,-5,-4,6,88,3
-32,-5,0,-3,-3,-5,-14,-10,3
2,3,14,0,0,0,17,76,3
37,-9,-7,1,1,1,15,57,3
-12,7,-7,-2,0,-3,-21,-62,3
10,4,1,-1,0,2,-8,3,3
4,2,6,-1,1,-2,1,11,3
-8,-3,-5,-1,-3,-1,-8,-20,3
6,-3,-3,-2,-1,1,5,14,3
5,4,3,2,-1,0,6,26,3
3,-4,-4,1,2,0,-1,21,3
22,8,7,4,0,0,6,0,3
-9,-8,-7,-6,0,-3,-12,-7,3
1,-2,-1,-4,-6,-8,0,27,3
21,8,-4,3,1,5,30,74,3
-27,-5,-29,-8,-5,-8,-30,-30,3
8,7,17,4,-3,0,-1,-35,3
9,-5,-4,0,1,1,0,6,3
-25,-5,-2,-1,-1,-4,-8,1,3
-12,-2,6,-1,-2,1,-3,-20,3
7,1,-7,0,-1,-1,0,-15,3
-9,-3,0,-1,0,1,14,86,3
16,1,-1,-3,-5,-5,-15,23,3
19,0,18,-3,0,-3,8,55,3
-12,-12,-31,-2,-1,-1,-12,-26,3
19,26,18,1,2,2,5,3,3
-11,4,13,2,3,3,10,-19,3
-7,-6,-8,-1,-3,-5,-6,-10,3
7,4,3,-1,0,-1,16,78,3
18,-4,-3,-1,-1,1,10,19,3
-27,-4,-9,1,-1,0,-12,-87,3
7,9,7,-1,2,5,10,12,3
-4,5,15,0,1,0,-9,-49,3
-14,-12,-25,-6,-3,-6,-16,30,3
32,3,5,0,0,-1,-1,-12,3
-30,-5,0,5,4,2,-3,-16,3
14,6,-12,-5,-3,-1,22,60,3
-3,-1,1,2,2,5,3,39,3
-12,-12,-10,-3,-4,-6,-36,-76,3
-55,-3,1,0,-4,-9,12,-57,3
-3,16,-9,0,-1,0,-8,-46,3
-8,-8,10,-1,-3,-2,-8,-26,3
1,4,-2,0,-1,0,7,-5,3
10,8,7,-2,-2,1,-9,42,3
-25,-11,5,0,1,-2,-7,-18,3
2,0,-3,-3,0,0,3,2,3
-15,-3,-1,-1,5,2,12,27,3
4,4,-1,-1,-2,1,-4,-36,3
15,-6,1,2,-3,-2,2,13,3
3,0,-12,-2,1,2,1,-15,3
9,-1,-14,-3,-1,-1,4,-5,3
-15,-5,-9,-5,-2,-1,-7,-28,3
30,1,6,2,-2,2,17,100,3
-21,-4,0,-2,-3,-3,3,-49,3
-12,6,5,-2,-1,-3,-21,-65,3
22,-1,0,0,0,1,3,23,3
12,-3,0,2,3,3,-2,-3,3
1,1,1,0,0,-2,-1,22,3
21,-1,-1,0,-1,1,19,60,3
-11,-2,-1,1,0,2,-2,14,3
-19,-3,7,-3,-2,-6,-7,-24,3
-14,-1,2,5,2,2,-3,-22,3
7,5,8,1,-1,-1,7,-5,3
0,-15,-41,-8,-3,0,-20,-42,3
-36,-12,-7,-5,-4,-7,18,-27,3
17,13,-5,0,1,0,-9,5,3
16,1,-3,2,0,3,13,40,3
19,2,10,0,1,0,-22,-74,3
2,-1,-2,2,1,2,1,63,3
0,-4,-2,-4,-3,-4,-3,-8,3
-6,-2,4,3,2,0,5,-25,3
46,-1,5,2,-3,-5,1,3,3
-17,3,-2,-1,1,2,-5,-14,3
8,3,9,2,-1,2,-1,-22,3
-27,-4,-7,-3,-4,-5,-21,1,3
-17,-2,6,-2,0,-2,12,-6,3
4,1,-3,0,1,1,-4,21,3
20,-4,6,1,0,1,6,-22,3
-4,-3,4,-1,0,-2,4,61,3
4,1,-6,2,-1,-1,-5,-11,3
-10,5,4,-2,-1,-1,-6,1,3
-4,-6,13,-1,0,0,5,22,3
0,11,3,-1,-1,1,-1,-30,3
0,-2,0,-1,-1,-1,6,49,3
3,6,16,3,1,0,4,-2,3
-5,-3,-16,-1,-1,-3,-23,-62,3
14,-6,-4,1,1,5,35,104,3
-10,-2,3,0,-2,-3,-32,-63,3
13,-4,1,0,-2,0,23,45,3
31,2,1,1,0,0,7,53,3
0,-5,1,1,2,1,1,-33,3
-32,-2,-1,-2,-1,-2,14,41,3
-5,-2,-1,-1,1,2,-12,-34,3
18,5,3,0,1,2,2,17,3
10,0,-25,-6,-4,-3,5,13,3
6,1,4,-1,-1,-1,-3,-27,3
-15,-6,-5,-1,0,-4,-14,-18,3
-25,-1,-7,-1,0,2,7,10,3
13,-1,5,2,2,0,-4,18,3
11,3,2,-1,2,2,-4,-54,3
3,-12,-18,-6,-4,-4,-12,9,3
3,-3,-11,-1,-1,-1,0,-42,3
-9,-8,0,-1,-2,-1,-8,-9,3
30,9,-5,1,0,-1,17,98,3
8,-2,2,2,2,5,-1,-10,3
-13,8,26,2,0,-1,-1,-3,3
-8,0,-17,-4,-3,-3,-14,17,3
-27,-3,1,1,0,2,16,47,3
6,5,-8,-2,0,-1,-15,-47,3
2,-5,-4,-3,-5,-4,1,0,3
8,4,10,2,-1,0,-11,-72,3
11,0,1,1,1,3,26,89,3
-11,-1,5,-2,-1,-1,-14,-20,3
-11,-5,-7,-1,0,2,7,54,3
-3,1,2,0,-2,-2,-11,-64,3
-23,-2,3,2,-1,1,2,-2,3
-3,-2,1,-2,-3,-1,3,-9,3
19,11,2,0,0,0,7,51,3
-4,-11,2,0,2,1,4,22,3
27,10,-2,-2,-1,-2,-10,-34,3
-5,3,10,0,0,2,8,20,3
-22,-7,10,2,-1,-6,-32,-100,3
13,1,-11,-1,0,-1,5,42,3
-6,-4,-4,-3,-3,-1,-6,-12,3
6,1,8,1,-2,0,-1,3,3
-17,-3,0,-3,-1,-1,13,35,3
2,0,3,0,-1,-1,-17,-35,3
1,-5,-2,0,1,0,8,19,3
11,-1,-3,-2,0,1,11,10,3
-10,0,2,-1,0,-1,-6,63,3
-17,-8,-29,-5,-2,-1,-11,-58,3
-1,-3,-3,-2,-2,-2,5,30,3
16,1,4,1,-1,-1,10,67,3
4,1,-7,0,1,3,0,-13,3
0,1,12,-1,-2,-1,-13,-71,3
2,1,5,3,0,-1,-2,-22,3
0,-2,-8,0,-3,-3,-1,-3,3
-12,-2,0,-2,-1,-2,-7,-54,3
-6,5,7,1,0,-2,-3,67,3
0,-5,-1,-3,-2,-4,-5,-76,3
15,1,-4,-1,0,0,5,19,3
9,-8,-45,-11,-6,0,-5,-4,3
-20,0,0,0,-1,1,12,57,3
2,-2,-3,0,2,-1,-3,30,3
1,10,7,-1,2,1,6,2,3
-10,-13,0,2,-1,-2,-14,-30,3
2,-1,-2,0,-2,-1,4,-24,3
8,4,7,-2,0,0,9,59,3
-16,-9,-9,-1,1,-2,-3,-75,3
7,3,6,-1,1,-4,4,24,3
11,2,6,1,0,1,1,12,3
10,-2,7,3,0,3,-5,-30,3
-14,1,7,0,0,2,5,35,3
-38,0,-8,-3,-2,-3,-1,-26,3
8,4,7,-1,-1,-1,1,-23,3
16,0,-4,-2,0,0,-2,44,3
1,4,8,4,2,1,-13,-24,3
-7,0,4,0,-2,-3,1,-40,3
2,-5,2,0,-2,0,14,51,3
-8,7,5,0,-1,0,-25,-71,3
-1,0,-30,-3,2,4,2,-33,3
-53,-6,2,-3,-4,-5,17,-13,3
-13,-11,-1,1,-1,-3,10,87,3
35,3,-9,-2,-1,-1,-4,-57,3
-2,-1,-4,-1,-2,-3,-12,7,3
50,5,14,2,1,1,-3,17,3
-9,1,-1,-1,1,1,2,0,3
-9,-2,0,0,0,-1,10,54,3
8,-2,4,-2,0,-4,-3,1,3
8,-6,7,3,1,1,-1,24,3
29,13,-8,0,-1,1,-8,-18,3
19,0,0,0,0,2,16,101,3
-24,-12,-12,-4,-1,-2,-6,-29,3
15,-3,-2,1,2,0,0,69,3
-24,-4,4,-1,-3,-2,-22,-98,3
-11,5,-1,-1,-1,-2,16,66,3
0,-4,-30,-6,-6,-2,-1,12,3
17,1,-2,1,1,6,3,-14,3
3,-4,-2,-3,-2,-2,5,68,3
-10,-3,-5,-1,0,-1,-6,-58,3
-3,-1,21,2,-2,-2,-15,-40,3
13,5,0,-2,-1,-2,6,-48,3
6,-1,-3,-3,-1,-3,-2,-15,3
-23,-3,2,0,0,0,1,3,3
-15,4,11,0,-2,-2,-6,-3,3
6,0,-4,0,-2,0,-8,16,3
38,4,5,-1,-2,-2,-10,-51,3
-29,-5,-1,-2,-3,-2,9,40,3
10,0,3,2,1,1,10,23,3
-17,-2,-5,-1,-2,0,-8,-12,3
-2,4,5,0,1,0,3,-6,3
10,-4,-8,-3,-2,0,-6,-11,3
-8,1,3,1,0,0,20,57,3
-25,-3,-2,-4,-3,-3,3,54,3
-35,-2,6,5,0,-1,-28,-61,3
-10,-7,-10,-2,-1,-1,-23,-44,3
10,1,6,1,-1,1,-1,12,3
7,1,4,1,1,0,7,66,3
1,-2,-27,-4,-2,-1,13,31,3
3,-1,-15,-2,1,0,-18,-58,3
-25,3,18,-2,-5,-6,20,57,3
18,-1,-6,-2,0,6,5,-27,3
-17,-3,-4,-4,-2,-2,-7,-14,3
-2,-1,10,1,-1,0,2,-5,3
50,7,6,0,1,3,4,16,3
-21,1,0,1,-1,2,-1,-1,3
0,4,13,1,3,3,1,5,3
-17,-3,5,-1,-2,-1,3,-4,3
7,-4,-2,-3,-1,-3,-2,17,3
-2,-1,3,-2,-3,-2,-12,-20,3
17,0,5,2,3,4,10,-3,3
18,3,-3,0,-2,2,2,19,3
7,3,-1,1,1,0,-8,-64,3
-5,-2,-4,-4,0,-5,8,35,3
-3,5,4,-3,-2,-2,3,0,3
-3,-1,2,-2,-1,-2,2,9,3
-9,4,-1,0,1,1,-25,-104,3
16,0,32,7,4,3,10,55,3
-14,-3,-3,1,-4,-7,-9,-78,3
-1,-6,-6,-5,0,-2,2,41,3
-20,-7,-13,-2,0,0,-8,28,3
6,2,6,2,2,4,-1,-34,3
2,6,10,0,2,0,5,18,3
-8,0,5,1,-3,-2,-1,-2,3
-10,-5,-6,-3,-1,-1,0,-43,3
-47,-5,-9,-3,-2,-2,-5,15,3
-7,-8,-14,-4,-4,-1,2,31,3
25,4,-3,0,1,1,4,-8,3
-38,-6,-1,-1,-3,-2,7,28,3
12,3,-3,1,0,1,18,18,3
-21,-3,-1,-5,-4,-5,-55,-65,3
-20,-4,3,2,1,0,20,50,3
10,8,3,1,2,2,-6,-17,3
13,3,0,2,0,-2,-6,-61,3
-5,2,-24,-7,-2,0,1,-28,3
26,-6,12,0,0,-5,-9,-22,3
-20,-4,1,-1,-2,-2,-6,20,3
7,3,-6,-1,2,1,10,20,3
14,0,21,6,3,3,12,-7,3
-1,-9,-46,-9,-4,-2,-8,37,3
40,4,-1,-1,1,0,-8,14,3
-50,-17,-7,-3,-6,-5,-11,-24,3
1,3,3,-1,-1,0,14,65,3
1,5,13,6,1,3,13,-5,3
2,1,4,0,0,-1,-10,-35,3
18,-9,-19,0,3,4,11,43,3
-19,-11,6,0,1,-3,-22,-57,3
-14,6,-8,-4,-2,0,-12,-55,3
12,-1,-9,-3,1,-1,20,71,3
22,9,4,0,0,2,1,-22,3
-11,-6,-3,0,0,0,9,62,3
7,2,8,0,2,1,-3,18,3
-19,-3,-3,1,0,-2,1,30,3
2,2,0,-3,-2,-1,-20,-104,3
15,-1,-4,2,2,1,15,64,3
-10,-5,4,-3,-2,-5,-4,0,3
-3,4,9,0,-2,-1,1,0,3
-7,2,-8,-3,-3,-3,-8,52,3
49,9,3,4,3,5,29,45,3
-21,-2,6,-2,-3,-9,-29,-63,3
45,-3,-2,1,3,6,29,59,3
-5,3,0,-2,-3,-7,-39,-82,3
12,0,-5,1,-2,0,9,56,3
8,5,12,0,-1,1,9,-20,3
4,3,2,1,0,1,8,44,3
20,-6,1,-2,-1,1,3,38,3
-10,1,-12,-1,-3,-1,-6,-19,3
-4,-1,0,4,1,2,0,-10,3
3,-4,-2,-2,-1,-3,-11,-23,3
-5,7,14,3,1,1,11,27,3
-13,-8,6,-1,-1,-2,7,13,3
4,7,18,0,-1,-2,-10,-44,3
-3,1,3,1,0,-1,-8,-37,3
13,-1,-26,-4,-2,0,8,74,3
-6,2,6,-1,0,1,-10,-67,3
-8,-5,-5,1,0,1,17,96,3
7,-8,-6,1,-2,-2,-5,-8,3
18,12,1,-1,-1,-1,-3,-46,3
-2,1,-2,-2,-1,0,-2,38,3
16,2,-2,-1,3,1,23,65,3
-8,-15,-11,-1,0,-1,4,7,3
-1,2,-5,-1,2,-1,-20,-71,3
5,5,-7,-3,1,1,17,27,3
-9,1,-1,1,-1,1,2,29,3
6,9,18,1,-2,-2,-4,4,3
16,3,-8,-1,1,0,2,-35,3
-14,-3,2,-3,-5,-7,-3,64,3
-17,-4,-5,-1,-3,-4,-18,-85,3
33,2,3,2,1,2,-1,-16,3
-8,-3,7,-1,-2,-1,6,33,3
9,3,8,0,0,-1,-10,-36,3
2,0,-3,1,0,0,1,3,3
-12,-5,-16,-8,-3,-2,7,22,3
4,1,4,-1,-3,-5,-9,-1,3
-18,-4,-5,-4,2,0,-1,-24,3
-17,-4,-6,-1,-1,-1,2,3,3
-11,2,-4,4,-1,0,-8,1,3
-4,-4,22,1,0,1,19,89,3
1,6,-4,0,0,-2,-20,-53,3
-36,-5,-1,-4,-3,-6,4,13,3
-15,4,-2,0,0,-1,-5,-27,3
-2,-1,-5,2,0,2,7,-37,3
-2,-2,5,3,-2,2,19,31,3
7,-4,-8,-3,-2,-5,-9,-72,3
-10,-3,-23,-7,-4,-3,-18,-70,3
-3,2,10,1,1,1,-11,15,3
40,1,4,2,3,4,20,49,3
5,9,1,-1,0,-1,-28,-77,3
-19,-1,18,1,-3,-3,7,15,3
-1,0,-20,-2,-2,-1,2,6,3
1,1,2,-1,-2,-1,-4,-22,3
18,1,5,2,3,4,13,61,3
5,-1,6,0,2,1,-5,-19,3
5,3,8,1,-2,-1,-11,-37,3
-16,-7,-15,-3,-3,-5,6,66,3
11,-2,-8,-1,0,2,8,9,3
-12,5,9,0,1,1,-2,-20,3
40,-16,-25,-4,-3,-6,11,53,3
-20,10,31,1,3,2,17,31,3
-25,-3,1,-2,-2,-3,-32,-84,3
28,3,0,1,2,3,14,42,3
-26,-6,-2,-2,-6,-7,-10,-18,3
0,-5,-5,3,0,2,-3,22,3
26,-6,-1,0,-1,1,-2,15,3
25,10,5,0,-1,0,1,13,3
-6,-3,-23,-4,-2,0,2,-7,3
26,-13,-26,-5,-1,2,13,57,3
-22,16,8,0,0,-1,-23,-32,3
-20,-5,-7,-2,-3,-5,-4,9,3
-2,1,10,0,3,2,-1,-7,3
2,-1,7,1,1,-2,-5,-39,3
18,-5,-4,1,3,1,15,38,3
-29,-2,3,-4,-1,-1,-1,15,3
-23,0,2,0,1,-2,-6,-4,3
-9,5,7,1,-1,-2,-20,-128,3
21,-1,3,-3,-4,-7,6,-9,3
-15,-4,6,0,-1,0,-3,-4,3
6,5,6,3,2,4,15,65,3
-13,-2,-8,-2,-1,-3,-14,48,3
-1,0,0,2,1,2,-1,-77,3
8,-4,-3,0,-1,-4,-8,53,3
0,-1,1,1,2,2,-4,-68,3
5,5,17,6,6,7,9,57,3
-55,-6,13,-5,-6,-9,11,-3,3
-5,-10,-36,-3,1,1,-7,-3,3
27,2,6,3,2,5,3,-6,3
12,20,19,1,-2,-2,-6,-26,3
-18,-7,13,1,1,0,-5,41,3
-10,0,5,0,-1,-2,-3,-60,3
-12,3,10,-2,-3,-1,0,9,3
8,-3,-10,0,-3,-1,-6,-38,3
22,-4,-13,1,0,3,25,127,3
3,4,3,-5,-3,-4,-22,-78,3
-4,-4,-1,-1,-1,-2,-7,8,3
-12,-7,-4,-4,-3,-4,1,4,3
15,3,-9,-2,2,4,-6,-29,3
1,-3,0,2,0,2,28,81,3
-32,-1,0,-2,1,-4,5,-69,3
-31,-5,-6,-4,-7,-8,-17,-82,3
4,2,3,-1,1,2,3,22,3
17,9,13,1,2,-1,-5,67,3
-13,-2,-16,-2,-2,-3,-11,-38,3
2,-6,-3,0,1,1,9,28,3
17,1,7,3,2,2,-8,-1,3
-2,0,0,2,0,0,-2,-56,3
5,6,24,-2,-1,-2,6,48,3
-41,-9,-5,0,0,0,-4,-59,3
12,3,-16,-6,-3,-6,-10,11,3
13,-1,4,1,5,3,28,17,3
24,1,-2,0,-3,-2,-8,-16,3
1,-1,-7,-2,-1,1,-23,-75,3
-7,-1,-3,0,2,3,23,15,3
-39,-5,-10,-7,-11,-11,-46,-109,3
1,2,11,0,0,0,-3,21,3
-2,-17,-32,-5,1,0,13,54,3
5,8,3,2,0,3,-7,29,3
6,-3,-5,-4,0,1,1,-3,3
-2,-4,7,3,1,0,15,15,3
13,6,16,2,-1,-1,-15,-14,3
-12,2,-1,0,-2,-1,7,-8,3
-3,-10,-15,0,-1,-1,5,18,3
-1,-4,9,-2,-4,-1,-3,20,3
19,10,2,0,1,-2,8,37,3
47,0,-1,0,-1,4,5,14,3
-15,3,6,1,-1,-1,5,36,3
16,-5,-19,-3,-1,-5,-7,26,3
-45,-5,5,-4,-3,-4,-21,-61,3
5,-3,11,0,1,1,-26,-64,3
11,15,8,2,1,2,27,32,3
1,5,-7,-2,0,2,-1,15,3
11,1,-4,-1,-2,-1,20,56,3
-21,-1,14,2,0,0,-2,-8,3
0,-11,-23,-1,-1,2,-9,-67,3
-10,0,-1,2,-1,-2,3,38,3
32,13,9,-3,1,1,1,14,3
-12,-4,-6,-3,-5,-2,8,24,3
-28,-2,5,0,-1,0,-3,2,3
3,4,-7,-1,-1,1,32,90,3
8,-3,-16,-2,-4,-6,-42,-69,3
-32,-7,-8,-2,0,-4,0,18,3
10,-3,2,2,-1,-1,-1,17,3
-2,2,17,0,-1,1,6,19,3
2,-5,-3,2,1,1,-7,32,3
-4,0,-11,-3,-3,-5,3,42,3
10,0,9,2,2,-1,5,20,3
8,-4,-2,0,1,1,-6,-37,3
-7,-10,-20,-3,-2,2,22,55,3
11,12,3,-2,2,2,-6,-13,3
-6,-1,1,1,4,4,-15,-49,3
-4,-3,-22,-11,-10,-18,-30,-9,3
-13,0,0,0,0,1,8,3,3
26,0,-6,0,-1,-1,8,30,3
1,-1,-17,-2,-2,1,3,10,3
-5,-1,23,-2,2,0,-9,-36,3
5,0,14,4,0,0,-1,-20,3
5,-8,3,3,0,0,-4,7,3
18,5,9,0,1,-2,10,52,3
-13,-7,-4,0,1,3,-6,-67,3
2,1,-1,-4,-3,-2,6,12,3
-8,0,5,1,-1,0,1,9,3
2,1,2,0,-3,-2,-2,-42,3
-13,-1,-8,-1,0,1,13,35,3
18,4,4,3,3,4,1,-8,3
-23,-6,19,-5,-5,-10,-36,-83,3
29,-4,-8,-3,-2,-4,20,99,3
-91,-8,10,2,1,0,-28,-30,3
6,-5,-14,-1,1,-1,33,-3,3
6,5,-7,-1,-1,-1,4,59,3
7,-6,-1,-3,-2,-1,-4,-2,3
38,5,6,2,0,0,-15,-22,3
-8,-6,3,-1,1,-1,-4,0,3
-29,-3,-4,2,1,1,6,9,3
-8,10,12,-3,-1,0,-4,-36,3
26,3,-15,-1,1,4,14,40,3
-11,-1,7,-2,-3,-4,-10,-26,3
19,2,-9,1,0,1,10,-11,3
-10,0,2,-1,-2,-2,4,47,3
19,-2,-4,-3,-3,-4,5,-7,3
-11,6,1,-1,1,-2,-11,-34,3
-24,-6,5,-1,-1,0,9,-28,3
72,6,-23,-3,-1,0,-14,-56,3
-77,-18,-7,-4,-4,-7,-13,-94,3
14,1,0,1,0,-1,3,70,3
-9,1,-6,-1,-3,-5,-7,33,3
6,0,25,2,1,0,-15,-80,3
42,-4,-16,-4,-2,-1,7,-12,3
-1,9,16,3,2,5,11,16,3
-7,-8,-16,-8,-2,-3,-14,-76,3
-23,-4,5,2,2,0,2,41,3
17,0,-13,-5,2,1,9,14,3
-6,11,3,0,-1,-1,0,9,3
12,-4,2,1,1,3,4,7,3
-25,-5,0,2,2,1,3,5,3
5,4,1,3,1,0,-3,-12,3
1,4,-11,-1,-2,-3,1,4,3
9,4,4,0,1,2,14,18,3
11,-1,-15,-7,-3,-4,-19,-42,3
-14,6,6,5,4,7,22,87,3
2,-6,-1,-1,-4,-6,-5,34,3
16,3,-7,3,2,5,18,60,3
-23,5,8,-1,-1,-5,-22,-49,3
37,6,13,4,2,4,10,28,3
-19,-9,5,-5,-3,-4,-11,-2,3
17,10,17,4,0,1,11,34,3
-37,-7,-23,-2,-3,-1,6,26,3
-59,1,-22,-4,-1,-4,-4,-18,3
8,2,2,-1,2,4,1,-3,3
21,-1,-5,-3,-3,-7,-19,-12,3
11,1,-8,2,0,4,23,64,3
8,1,21,0,-1,-4,-15,-39,3
3,3,23,2,2,2,16,34,3
-10,-4,4,-1,1,-3,-15,4,3
-2,-3,-24,-4,-1,0,-8,-35,3
-12,-6,-3,1,-1,-2,1,8,3
5,-5,-8,-2,-2,-1,-2,-6,3
8,5,3,0,1,3,7,-76,3
-32,-8,7,-3,-3,-7,-18,-34,3
7,0,-5,0,-3,-2,4,52,3
-3,-3,-7,-3,-1,1,-6,-38,3
4,-3,-9,-2,-3,0,-7,8,3
-30,0,1,-1,-2,-1,10,66,3
13,5,6,-3,0,2,-3,-61,3
15,-2,-9,-1,0,0,14,52,3
-59,0,4,3,1,-1,-14,-42,3
29,-3,-3,-4,1,2,8,82,3
-3,-4,-2,-1,-3,-3,2,-5,3
-11,-9,-8,-1,-3,-1,-7,-12,3
-6,3,-3,1,1,1,7,-10,3
0,-6,19,4,2,0,-5,-24,3
33,4,2,3,-2,-3,-9,-23,3
-33,-10,-28,-7,-2,-1,10,48,3
-54,-1,-5,-3,-2,-5,-13,-82,3
8,7,13,-1,0,1,2,31,3
18,8,0,-3,-2,-4,11,123,3
11,-5,-6,-1,-1,-5,-10,27,3
19,-2,-2,-1,0,1,8,55,3
-6,7,2,2,1,2,16,-6,3
-5,-8,-4,-2,0,1,-5,-43,3
13,-1,7,1,-2,1,-8,-37,3
10,-2,-13,-5,0,-1,9,35,3
11,2,2,0,-1,-1,-9,-44,3
17,6,4,-1,-2,2,14,48,3
-3,-2,1,0,2,-2,-5,-33,3
44,-1,-14,-2,-2,0,3,23,3
-15,-2,-4,0,0,-1,-5,24,3
55,7,2,2,2,5,7,-44,3
-26,-6,7,0,-3,-5,-25,-19,3
-23,0,-2,-6,-6,-6,-13,-20,3
4,-5,9,-2,-3,-4,-11,-74,3
-3,2,-1,-1,-2,-2,-3,-19,3
6,5,3,0,1,2,4,-13,3
10,-2,12,1,2,0,2,12,3
6,2,-8,-3,-3,-2,7,19,3
-17,-2,-2,1,2,0,-2,12,3
9,4,7,3,0,1,16,27,3
-29,1,1,1,-1,-2,-36,-47,3
19,-10,-13,-3,-3,-2,15,24,3
-26,-4,-3,-4,1,-1,-1,15,3
-6,-7,-32,-6,0,-1,-6,-21,3
35,-1,-6,0,1,3,17,27,3
-4,3,5,2,2,2,2,-12,3
-6,-3,-1,1,-2,0,-6,-18,3
4,2,8,0,-3,0,4,29,3
-20,-4,0,0,0,-2,-4,-51,3
9,2,-4,1,2,3,3,25,3
-31,-6,-2,-5,-3,-5,-16,-51,3
-1,4,31,5,2,-1,-3,-40,3
-20,2,-25,0,3,4,35,100,3
3,3,3,3,0,0,-28,-70,3
25,5,6,-4,-2,-3,24,74,3
-3,-1,-1,0,0,-2,-4,-2,3
10,-19,-10,0,-2,-1,12,42,3
-44,2,0,0,-1,-2,-16,-81,3
-6,0,0,4,2,2,-18,-88,3
-26,-2,-1,-1,0,-1,6,-24,3
19,6,2,-6,-6,-5,4,40,3
2,-1,-7,-5,-1,-1,6,121,3
4,-2,1,3,3,4,-15,-27,3
22,9,8,-2,-1,-1,11,-37,3
-11,-7,-5,-1,-3,-1,11,63,3
-9,-5,-5,-2,-1,-3,-16,-119,3
16,0,-7,1,1,2,17,56,3
20,3,-1,-1,-1,0,-11,13,3
-1,0,9,5,-1,2,-9,-45,3
16,5,6,-4,-1,-2,9,38,3
-14,-5,2,0,2,-1,-9,-34,3
17,-10,-11,-1,-2,-2,3,-10,3
47,5,9,0,2,4,6,5,3
-53,4,-2,0,-1,-2,-20,-70,3
-4,-4,-6,-4,-5,-6,-4,75,3
-1,2,6,1,0,0,-2,6,3
12,3,-1,-1,1,0,16,71,3
45,-1,1,1,2,5,20,-10,3
-4,-3,-2,0,2,1,1,13,3
-18,0,-13,-8,-3,-5,-18,-3,3
-11,-4,4,0,0,-4,-29,-111,3
5,1,-1,0,-1,0,7,91,3
8,1,-9,-2,-5,-3,-13,-53,3
16,-1,-1,0,2,0,-4,63,3
-57,0,4,0,-1,-3,9,44,3
-22,-6,-8,-3,-2,-3,-10,-37,3
-1,-9,-6,-4,-2,0,7,-2,3
16,9,-4,2,4,5,3,-6,3
8,-4,-16,-4,-2,-2,-14,-57,3
0,-8,-11,-1,0,-1,13,42,3
-13,-1,13,2,3,4,0,22,3
-2,-2,-6,-4,-4,-4,-9,-14,3
10,0,3,0,-1,2,13,77,3
-11,0,13,0,-1,-5,-17,-4,3
-1,-3,-8,-3,-1,-2,-20,-6,3
-4,-2,2,3,3,6,10,25,3
8,6,6,0,-1,-1,-12,-79,3
18,-2,2,-4,-3,-1,28,89,3
48,10,5,1,2,0,2,31,3
-98,-11,-4,-5,-3,-2,-2,-63,3
2,-2,3,-2,-4,-7,-30,-44,3
58,7,14,6,1,4,7,44,3
-12,-7,-28,-2,-2,1,4,-15,3
-4,0,0,-5,-4,-3,-1,-40,3
6,2,-10,1,2,5,8,37,3
-21,-3,-1,0,-1,-4,-13,-90,3
-3,4,4,1,0,1,-7,-57,3
24,6,12,0,-1,-2,20,88,3
-11,-20,-9,1,3,-1,-8,-50,3
-21,13,11,-3,-4,-2,-2,13,3
-19,4,13,3,3,1,10,37,3
89,7,-4,3,1,5,6,-26,3
-70,-12,8,-3,-5,-5,-4,2,3
17,-8,0,0,0,3,20,79,3
-10,1,0,-2,0,-2,-15,-43,3
9,3,5,1,0,0,0,38,3
16,9,-1,1,0,3,4,7,3
-4,-4,-2,0,2,0,6,10,3
-7,0,-3,-2,1,-4,3,5,3
-3,0,-4,0,-1,-2,4,26,3
7,5,3,-4,3,2,-2,-40,3
-11,0,-6,1,1,0,-16,-46,3
19,2,10,0,0,0,13,43,3
30,4,4,2,1,2,-19,-63,3
-39,-15,-15,-8,-5,-7,13,94,3
18,8,3,0,-1,2,-6,-41,3
-2,-4,-9,-2,-3,-1,-3,-15,3
6,1,4,1,1,0,6,-6,3
26,4,0,2,3,4,1,85,3
-9,6,-1,-7,-2,-4,-5,23,3
-4,-3,8,3,-5,-2,12,50,3
-36,-2,-3,-1,0,-2,-8,-26,3
23,10,11,3,1,1,3,21,3
-13,-10,-7,4,7,2,4,26,3
-9,0,-5,-5,-5,3,-10,-45,3
-13,-5,-9,-6,-6,-5,13,45,3
11,8,1,2,-1,0,0,-18,3
7,-13,0,0,-1,0,0,-8,3
-16,4,-25,-6,-1,-2,3,-1,3
21,2,-6,1,2,-1,-24,-34,3
2,-4,-8,1,1,4,22,20,3
-17,0,-9,-2,-3,-6,-27,-60,3
-4,-6,11,0,3,-1,-1,21,3
-16,-6,-5,-3,-3,-2,5,-29,3
-19,3,2,2,0,1,1,-35,3
32,-2,-1,-1,-2,-2,-11,-80,3
19,3,4,2,2,2,26,125,3
-62,-13,-6,-1,0,-5,-37,-72,3
19,5,5,-2,-2,-2,1,8,3
-7,-1,-3,-1,0,0,4,78,3
-11,-3,2,1,0,-4,-16,-13,3
-2,-2,6,3,0,3,14,28,3
-16,0,-1,-2,-2,-5,-20,-27,3
-11,-1,1,-1,-3,-2,20,24,3
-23,-3,2,3,1,0,1,-39,3
-23,-1,-17,-4,1,2,22,42,3
16,6,2,-2,-4,-3,-21,-63,3
8,7,1,2,2,2,-9,11,3
12,1,2,-1,1,0,6,-32,3
17,3,10,3,2,7,23,70,3
-10,-6,-15,-4,-2,-6,-18,-65,3
19,-5,-12,-6,-3,1,4,44,3
-18,-7,-1,1,-3,-3,-2,4,3
5,0,-4,-4,-2,-4,-17,-21,3
20,4,9,0,4,5,19,31,3
-11,-3,3,1,-1,-1,-7,-40,3
15,2,1,1,3,3,-4,-15,3
19,2,8,1,-5,-4,-1,21,3
14,-7,0,0,0,1,-4,-28,3
-5,0,-7,1,0,-1,2,-20,3
13,6,16,-1,-1,1,4,42,3
-4,2,0,-3,-1,-2,-6,-17,3
6,-3,10,3,1,0,2,17,3
56,13,5,3,4,9,16,29,3
-57,-10,-8,-5,-6,-6,-9,-19,3
-12,-2,-3,0,-1,-2,-14,-44,3
-6,-2,2,0,0,-1,6,1,3
5,2,-3,0,0,0,4,24,3
29,8,4,1,1,-2,-10,-37,3
5,-15,10,0,-2,0,4,23,3
-9,-8,-31,-3,1,1,15,34,3
-16,14,31,1,-3,-5,-19,47,3
-13,-15,-21,-4,-3,-1,4,57,3
-14,6,0,-1,-2,-2,7,58,3
10,3,11,1,2,2,4,21,3
-36,-7,-3,-3,1,1,2,-4,3
12,-5,-25,-4,1,-1,-6,4,3
32,7,11,2,2,3,5,-1,3
-15,2,2,-1,-5,3,10,39,3
40,5,-3,4,5,5,13,26,3
-37,-10,-21,-7,-7,-9,-11,-13,3
-1,-2,-11,-3,-2,-7,-42,-60,3
-20,-8,3,1,-2,-3,-6,-46,3
-45,-13,1,-1,-1,-3,5,43,3
28,7,7,1,0,-1,-9,-70,3
-3,-1,-24,-3,0,1,9,36,3
0,4,9,0,0,-2,-4,16,3
-3,-7,-4,-1,-1,-1,-2,-47,3
-2,0,14,1,3,0,-3,-33,3
-16,-2,-5,1,-1,0,5,3,3
3,-1,1,-1,-1,0,-10,-25,3
-20,-3,-14,-5,-3,-1,0,-43,3
12,6,23,5,2,1,12,34,3
-14,-5,-4,1,-2,-2,-7,-41,3
6,0,2,-2,-1,0,-2,-17,3
-1,-1,-2,0,-1,-2,2,-11,3
3,3,-2,0,0,4,9,28,3
12,5,13,3,0,-2,-22,-83,3
11,7,5,2,1,2,0,-34,3
-61,-15,-17,-6,-6,-6,2,41,3
23,2,-1,-2,-2,-4,11,32,3
8,11,11,1,2,3,8,24,3
-32,-9,-20,-6,-4,-7,-8,-6,3
18,1,1,-1,1,4,26,65,3
6,7,5,-1,-2,2,-19,-45,3
-8,0,-1,-5,-2,-4,-11,-14,3
11,-9,10,0,1,2,0,24,3
13,5,5,1,0,0,6,15,3
-1,-3,5,2,0,0,6,5,3
-1,3,6,-1,-1,1,8,7,3
-2,0,3,0,-2,-3,-6,-8,3
6,-2,-4,-1,-1,-1,-9,-52,3
-9,1,8,-3,-1,-1,-2,-17,3
-21,-6,1,2,1,1,3,-10,3
26,-1,-6,-2,-1,-4,-2,4,3
-17,-1,18,1,-2,-5,-10,-17,3
2,2,-19,2,1,3,-2,23,3
-11,-4,0,-1,1,2,14,7,3
2,4,-1,-3,-5,-9,-8,-18,3
19,3,-3,-1,-1,0,-11,30,3
-20,-5,0,-2,-1,-5,-9,10,3
15,1,0,2,3,5,29,45,3
2,5,-2,1,-1,2,-14,-42,3
6,2,-4,-4,1,0,-1,3,3
14,1,-8,-2,-2,2,-16,-73,3
0,-11,-27,-2,0,-1,1,34,3
-7,11,15,2,0,4,14,25,3
-2,-10,-13,-1,-3,-3,-5,-14,3
12,7,11,2,1,1,10,21,3
-4,-9,0,-1,-2,-2,-6,-29,3
0,3,-13,0,1,1,-4,-14,3
7,8,42,1,0,-2,-4,-17,3
17,2,-20,-2,-2,1,4,32,3
-21,-3,1,-6,-3,-5,-2,2,3
8,-2,1,0,0,1,4,33,3
11,5,-7,1,2,2,4,14,3
-13,-7,7,1,1,0,2,-35,3
3,2,7,2,-1,-3,-10,-45,3
8,-6,-8,-2,0,0,-2,18,3
-37,-4,-11,-2,0,1,9,24,3
-24,-5,2,-2,0,-1,-23,-52,3
13,2,1,2,2,3,14,70,3
17,2,21,2,-4,-4,-2,-19,3
-28,-3,4,1,-1,1,-15,-58,3
9,5,-9,-2,-1,-2,33,127,3
3,9,10,1,0,-2,-5,-3,3
11,0,-5,3,1,2,-5,-7,3
17,-13,0,0,1,-2,-4,11,3
-28,3,-1,-2,-1,0,7,-2,3
16,5,1,-3,-2,0,-16,-31,3
-6,3,-5,-3,1,-1,12,32,3
10,-5,-13,-1,-2,0,-3,-36,3
-2,-4,9,1,0,-1,-4,-28,3
-6,5,0,-1,0,2,8,32,3
-24,-6,-7,-3,-1,-2,-15,-21,3
-4,3,-10,-4,-4,0,7,13,3
-1,-5,4,1,1,1,6,-19,3
2,-1,-1,0,-1,0,-17,13,3
0,-1,-3,0,0,0,29,71,3
-9,1,1,0,-4,-2,-23,-41,3
-14,2,1,-2,0,0,1,-9,3
-9,-6,-2,1,-2,1,0,-12,3
12,1,-4,1,-1,2,7,9,3
4,0,-4,0,1,-1,3,-36,3
0,-6,-20,-3,-2,-2,13,20,3
7,1,7,1,2,-2,-9,27,3
-24,-13,-48,-9,-4,-1,-13,-65,3
-18,12,20,-2,-2,-3,-6,-64,3
15,-3,3,1,-2,-2,5,52,3
-8,-2,-2,-3,1,-1,1,-51,3
6,5,8,3,1,0,0,-17,3
17,-12,0,1,2,1,1,49,3
23,17,-16,-5,0,0,-9,-26,3
14,-7,2,0,0,2,11,12,3
-77,-1,8,-1,-5,-6,-22,-21,3
27,8,-6,-1,3,-1,7,12,3
-15,-5,18,3,0,1,-9,15,3
-6,-6,-10,-6,-3,-4,18,29,3
7,0,8,1,1,-1,8,78,3
7,3,-3,1,0,2,5,28,3
0,-3,1,0,-1,-1,0,33,3
-2,-6,-9,0,-3,-2,-9,-48,3
-6,0,-11,-1,3,1,-3,-21,3
-9,-6,-1,-1,-1,-3,-9,-25,3
7,5,3,2,2,5,13,47,3
9,0,8,0,-4,-3,-17,-44,3
7,-2,-5,-7,-5,-8,5,14,3
12,-3,-6,2,3,2,-10,-6,3
20,1,8,2,0,-1,10,-7,3
29,16,-2,1,3,3,27,127,3
18,-3,4,0,3,3,-18,-95,3
-19,-6,-9,-6,-5,-11,-12,34,3
-2,1,15,1,-2,-2,-8,25,3
-4,0,-11,-3,-1,1,-1,-7,3
20,-4,3,-2,-2,4,4,29,3
-13,-4,-18,-2,-1,2,12,1,3
4,-2,11,-1,-3,-4,-21,-79,3
-11,-6,-8,0,0,-3,2,-7,3
11,9,15,4,2,0,1,41,3
6,-3,8,-1,-2,3,-3,-21,3
-70,-11,-18,-6,-2,-4,-1,4,3
13,4,4,1,-1,2,8,17,3
-25,-8,0,0,-2,-3,-27,-69,3
-3,6,-2,3,2,4,22,40,3
3,-10,-12,-1,-1,-5,-41,-86,3
7,1,0,-2,-4,-4,31,87,3
-18,-11,-14,0,1,-1,-14,-66,3
25,2,8,1,0,4,23,61,3
-5,2,0,1,3,1,-6,-44,3
-10,-5,7,0,-1,-1,-21,-18,3
11,5,-3,-1,0,0,29,52,3
-9,-3,-6,-2,-4,-2,-20,-58,3
57,4,-1,1,-3,-2,8,1,3
-20,3,6,-2,-2,-4,-17,-37,3
-10,1,-19,-5,-1,1,18,37,3
0,-2,10,-1,2,0,-16,-49,3
1,1,-13,-1,-1,2,3,-51,3
-5,-3,-8,-1,-2,-5,-3,-27,3
1,3,13,2,0,-1,-1,1,3
1,0,2,1,-1,-1,10,58,3
-8,-2,4,1,0,2,7,25,3
-3,-2,-14,-4,0,3,-8,0,3
48,9,-5,2,2,3,19,50,3
-8,7,-19,-2,-1,-2,0,9,3
6,-6,15,-1,2,-1,10,32,3
0,7,0,1,3,3,-4,-35,3
-8,-1,9,-4,-5,-11,-13,-56,3
13,3,-5,-1,3,0,14,48,3
-9,-4,-6,-1,0,0,-6,2,3
-9,6,10,3,1,1,12,5,3
5,-10,-11,-2,0,2,-8,9,3
-15,-8,18,3,1,0,-2,-32,3
-2,1,-13,-3,-2,-2,-7,-36,3
-4,-4,-1,0,-1,-2,-5,21,3
-6,7,15,1,-1,-2,-19,-51,3
-1,-5,1,1,-2,-1,4,-26,3
-13,1,0,-2,2,0,3,34,3
11,-1,4,1,0,3,3,-43,3
5,1,-1,-1,-4,-6,12,29,3
13,3,1,0,2,2,-2,-18,3
-33,-4,-15,-5,-1,-3,-5,-12,3
2,-5,-4,-1,0,0,-10,-36,3
-7,0,6,-1,-1,1,12,80,3
42,3,-4,-1,1,0,4,57,3
4,2,3,1,-2,-3,5,19,3
-2,-1,4,-1,-4,-2,-7,40,3
-3,-1,5,-1,0,2,-20,-79,3
-9,-1,-6,-5,-4,-5,6,72,3
4,0,5,0,-1,1,1,50,3
-8,-4,0,-1,-1,-3,2,2,3
11,1,6,3,2,3,3,8,3
0,-3,1,2,1,1,-8,-37,3
-6,23,4,-9,-5,-4,2,3,3
14,4,-7,1,2,3,5,15,3
16,-4,-1,-1,1,1,2,27,3
-37,-6,-14,-1,-1,0,4,31,3
-3,-7,7,-2,-1,-6,-58,-92,3
24,2,-5,1,0,0,16,64,3
-27,-1,-4,-3,-2,-3,-10,-53,3
22,6,9,0,0,3,2,42,3
-1,-9,-3,1,-2,-1,8,9,3
-13,-8,-4,-5,-3,-4,4,-4,3
-1,1,-5,0,0,-2,-12,2,3
-12,-6,-5,1,0,-1,0,-9,3
3,-4,2,3,1,3,9,-23,3
-7,-5,-1,-2,0,-1,-11,-34,3
-3,0,1,0,-1,-1,20,53,3
-18,0,1,-4,1,-1,-10,-48,3
-5,-5,-3,-1,-2,2,7,30,3
-4,-7,-1,0,1,-3,-1,-3,3
24,5,6,0,-1,1,0,20,3
-41,2,0,-2,-2,-4,-10,-39,3
21,-1,-22,-4,-1,0,0,22,3
0,-2,6,-1,2,0,1,-12,3
-15,0,-2,0,-1,0,-1,-15,3
31,-5,2,-4,-1,-3,8,57,3
-16,14,8,0,2,-3,-22,-76,3
-12,-5,-2,-2,-4,-6,-12,-32,3
11,1,2,-2,1,0,12,62,3
4,2,3,2,0,1,1,-7,3
21,-3,4,1,1,6,22,74,3
-12,-1,-3,-1,-4,-3,-30,-94,3
-2,3,-8,-4,-4,-5,10,54,3
-31,-4,-7,-2,-3,-3,-7,-8,3
11,-2,5,2,1,0,5,62,3
8,3,4,2,0,1,6,21,3
-17,-11,12,0,2,2,2,26,3
21,4,-14,-1,1,1,4,4,3
-1,2,2,1,-2,-2,6,-9,3
7,2,-5,-1,0,1,4,23,3
8,-1,0,2,0,-1,-6,-7,3
17,7,5,2,2,0,-2,-6,3
-12,-5,-20,-5,-1,-2,-2,-62,3
-59,-7,-4,-1,-1,-1,1,-3,3
10,0,2,2,1,3,14,11,3
-2,5,-5,-3,-2,-5,-21,-21,3
23,3,17,2,-1,-2,16,15,3
31,5,1,0,1,2,2,61,3
-8,2,14,0,-1,-1,28,60,3
-6,-2,8,1,0,-2,-51,-87,3
16,-2,8,4,0,0,17,85,3
4,0,-5,-2,-1,-2,-7,35,3
-2,0,-2,-2,-1,-1,1,-37,3
5,1,-2,0,-1,0,7,-39,3
-10,-6,-3,-4,-5,-1,-19,-39,3
-3,8,6,-1,0,-2,9,13,3
-17,-9,-10,1,-1,-1,-4,-6,3
11,1,-1,-3,-4,-3,8,12,3
-11,-2,-7,0,2,0,-10,-52,3
2,2,5,-1,-1,1,7,24,3
9,2,-1,-1,-2,-2,-16,-15,3
6,-10,0,-1,-1,1,11,-8,3
5,-4,-26,-2,1,1,10,32,3
0,-2,-2,0,0,-2,-18,-77,3
7,4,-2,0,3,1,-9,-5,3
45,1,0,0,-3,-3,6,50,3
-73,-14,-4,-4,-1,-1,-4,26,3
-7,0,11,0,-2,-1,11,67,3
2,5,3,-3,-1,-3,-11,0,3
0,-4,1,0,0,0,5,13,3
20,5,6,2,0,0,5,8,3
2,-2,-3,-1,1,2,-2,-7,3
8,5,4,2,3,8,17,56,3
-29,-14,-1,-1,-4,-5,-28,-55,3
18,1,4,0,-2,-4,-14,-4,3
1,-2,-5,1,-1,-1,10,25,3
-18,-2,4,1,1,-1,-4,-33,3
-5,-2,2,-1,0,1,-3,-25,3
-2,8,3,2,-1,0,6,-7,3
6,-1,-3,-2,-3,-1,-7,-47,3
-26,-10,-8,-7,-3,-3,-8,-49,3
13,8,17,3,0,2,16,43,3
-41,2,-5,0,2,0,-9,-1,3
-2,-2,3,1,1,0,5,17,3
4,-1,-2,-3,1,-1,-4,17,3
6,5,-3,0,0,0,1,-33,3
12,4,-15,-3,-1,0,20,55,3
-3,-7,-14,-1,-1,-1,-23,-66,3
11,12,4,4,2,3,8,-48,3
3,-9,-19,-7,-7,-8,-11,78,3
13,9,5,2,2,5,11,-11,3
-9,-7,-9,-2,-2,-1,13,43,3
25,9,6,0,-1,0,-2,-18,3
-18,5,-4,2,3,3,4,-6,3
8,-1,13,1,-2,-1,-1,-7,3
-14,-3,-6,-3,-2,-4,1,-35,3
2,-4,-3,-4,-3,-5,-6,18,3
-5,3,-1,4,2,3,5,12,3
4,-5,3,-2,-2,-2,-25,-56,3
-21,1,3,-1,1,3,-4,11,3
3,-5,-6,3,1,0,-3,-50,3
-37,-4,-1,-3,0,-2,5,9,3
-5,-8,-8,-6,-4,-3,7,-8,3
27,4,13,1,-1,0,7,44,3
-26,-4,-8,-1,-2,-1,-15,-54,3
5,3,15,-1,-2,-2,-13,-25,3
17,4,-10,-2,1,0,1,7,3
-10,-18,-1,1,0,-1,-5,-10,3
-1,3,-19,-4,-2,-1,-2,44,3
-8,1,0,-1,1,-2,18,10,3
8,0,8,2,1,1,7,37,3
-11,3,0,0,0,-1,-14,-16,3
15,-1,2,0,-2,-2,0,113,3
16,0,-12,-1,-1,-1,14,84,3
11,0,5,0,-2,-2,-13,-99,3
8,6,1,-1,1,2,24,100,3
-20,-7,-2,-4,-3,-1,-6,-47,3
-3,1,0,1,2,1,2,-11,3
-7,-4,3,0,-1,-1,-5,-23,3
17,6,11,0,1,-1,1,-26,3
-3,-2,-1,-4,-4,-2,-7,-35,3
12,0,0,-3,-1,1,2,1,3
-7,-3,3,-1,2,-1,7,31,3
10,0,-6,1,-1,-1,-7,-35,3
10,-4,-1,1,2,-3,-12,-8,3
6,3,9,3,2,4,10,-9,3
-27,-1,-8,0,2,1,-7,-29,3
-40,4,12,2,0,-1,-19,-35,3
-6,-10,-22,-6,-4,-7,10,65,3
8,0,-13,-2,0,3,0,-44,3
25,6,21,1,-5,2,14,115,3
-3,0,-3,0,-3,-1,-8,-66,3
-2,-2,10,1,1,1,-1,7,3
-15,-2,14,1,0,0,6,32,3
-6,-1,-6,-1,0,-2,-11,-2,3
6,2,-5,-4,0,-2,-6,-12,3
-2,2,4,0,-1,-1,21,72,3
-1,-7,-9,-1,0,-4,-7,-22,3
-1,-5,5,-1,0,-1,6,37,3
16,3,5,-1,2,-1,-3,-6,3
-7,-4,-5,-1,1,-1,3,0,3
-2,4,-1,-2,-1,0,-1,7,3
8,1,2,2,1,2,0,-9,3
-15,-5,-13,4,0,2,22,12,3
-49,-6,2,-7,-2,-7,-39,-105,3
-8,1,-5,-3,-1,-1,7,15,3
22,2,8,2,-2,-4,-14,-30,3
8,-16,-47,-13,-3,-5,-5,-5,3
-17,-2,5,5,2,8,10,52,3
4,12,6,1,-1,-1,-12,-60,3
-22,-6,-6,-3,-2,-5,-1,-18,3
14,9,9,1,0,-1,4,-12,3
27,-2,-6,1,0,0,1,-18,3
-8,-7,4,-2,-1,-3,-8,-3,3
-7,4,10,1,0,4,9,-3,3
-22,2,4,-3,-2,-3,1,50,3
-9,5,3,-2,1,1,-13,-49,3
4,-6,-5,-1,1,0,2,18,3
7,-14,-17,1,0,0,0,-4,3
4,10,31,-5,0,0,-7,-4,3
25,-2,-20,0,-2,3,3,40,3
2,0,-6,-4,-4,-6,24,58,3
-6,-3,-1,-3,0,-4,-35,-92,3
37,-2,-7,3,2,3,-7,-14,3
-6,-3,20,-3,-3,-6,27,80,3
22,3,-3,1,6,8,-3,11,3
-4,1,-5,-1,-3,-4,16,65,3
-22,3,-8,2,-2,-2,-2,-3,3
33,1,8,3,1,0,-14,-36,3
-10,-4,2,3,-1,2,11,63,3
-2,3,16,1,1,-3,-13,-10,3
8,-8,-10,-4,-2,-3,-8,-34,3
-10,-1,0,-1,-2,-5,-2,-21,3
-8,1,1,0,-3,-2,-7,-58,3
-5,-4,-15,0,0,3,13,50,3
-4,-5,4,3,3,3,2,-10,3
-1,5,-5,-3,-1,-1,-9,-69,3
-4,0,4,-2,-4,-3,7,11,3
-13,-2,0,-2,-2,-1,-8,-4,3
12,3,6,3,1,0,4,25,3
9,4,-2,4,2,5,4,-5,3
-2,4,0,0,0,0,-22,-78,3
21,-1,-1,-3,-4,-1,-2,-45,3
-19,-2,-2,-4,0,-1,9,56,3
8,7,6,3,0,-1,0,25,3
-11,-8,-6,-1,0,-1,-10,-35,3
-4,-3,-1,-2,1,1,0,39,3
16,1,36,5,0,-1,14,16,3
18,4,-34,-6,-1,-4,-21,-95,3
-2,2,3,0,-1,-3,12,29,3
-35,-1,0,2,1,2,5,5,3
9,-3,-1,3,0,1,-4,19,3
13,-2,26,0,-1,1,8,53,3
-23,-12,-24,-3,-1,-2,-21,-92,3
17,15,30,1,2,4,15,35,3
-10,-6,-16,-10,-6,-7,-13,-58,3
-4,-3,0,2,-2,0,7,46,3
28,7,-2,0,2,2,-6,49,3
-5,-3,-7,-1,-4,-4,11,22,3
10,4,-5,0,1,1,-2,-7,3
-23,-6,-3,-2,-2,-1,7,24,3
-1,5,10,1,-3,-2,-3,34,3
11,-1,-10,1,0,0,-12,-84,3
6,5,0,0,2,0,11,51,3
-36,-1,-4,0,1,2,-1,-11,3
-2,-4,15,2,-1,-3,-1,16,3
2,0,-20,-2,-2,0,1,9,3
2,-1,-5,-1,0,1,2,41,3
24,2,5,-1,0,0,-18,-98,3
-31,-2,5,-1,-2,-3,0,81,3
-18,-8,-21,-6,-4,-9,-37,-99,3
-3,-1,15,-2,-2,-2,3,29,3
-3,-3,-8,-2,-2,-1,11,85,3
22,7,6,-1,-1,-1,4,-9,3
4,-3,-4,0,-2,1,20,61,3
-12,0,-4,3,-3,-3,-32,-95,3
7,8,4,-2,-1,0,-2,-9,3
2,0,-8,-1,0,3,16,24,3
-8,-1,1,-2,-2,-2,-23,-30,3
3,1,-4,-2,2,1,14,-28,3
-10,-5,4,-2,-3,-2,-1,50,3
10,2,-5,-1,0,2,-1,-27,3
15,4,3,0,1,3,17,48,3
-43,-6,19,0,0,-1,-3,-21,3
1,2,-14,0,2,-1,-11,-30,3
3,-3,7,-1,-1,-1,1,-19,3
1,-2,4,0,0,-2,11,69,3
7,2,-4,0,-1,0,-4,-3,3
-4,-4,17,1,0,-2,12,34,3
-6,-2,-20,-1,-4,-4,-37,-95,3
12,6,11,-5,-1,-1,19,89,3
11,-11,-14,-6,-5,-1,-3,0,3
-6,-5,-1,0,1,0,-3,6,3
7,1,-1,1,2,1,3,8,3
13,2,2,1,0,-1,-5,0,3
-19,-4,-20,-3,-3,-3,-4,-42,3
12,5,0,-2,0,0,20,86,3
-6,-6,-3,-4,-2,-3,-17,-29,3
-2,-2,-11,-2,1,2,8,17,3
1,2,11,1,-3,-3,-1,-3,3
5,0,-2,3,1,3,1,-14,3
-7,1,-10,-7,-2,-1,-3,-12,3
-1,-7,3,1,0,0,2,-27,3
5,11,-5,-1,-1,0,7,38,3
24,5,21,5,3,2,-4,-96,3
1,3,-25,-3,1,-1,7,42,3
-19,-3,-1,0,1,1,-8,-64,3
9,-1,10,2,1,1,10,81,3
-22,-4,-22,-2,-1,-6,-58,-95,3
5,-3,9,1,1,3,29,77,3
14,-2,1,-1,-1,-3,16,48,3
9,10,4,5,1,1,3,27,3
1,-4,0,-1,-3,1,-3,-22,3
3,-4,5,-1,-2,0,-2,-5,3
-11,0,-5,-2,-1,-2,-17,-42,3
6,-4,-2,0,0,-2,-5,-57,3
-8,-3,0,1,0,-1,10,17,3
0,1,1,-1,-1,0,3,13,3
17,4,5,-2,0,-2,-1,26,3
-14,-12,-21,-4,-3,2,1,1,3
-36,11,14,-1,-2,-3,6,35,3
6,1,2,3,3,4,8,12,3
1,-1,10,-1,-2,-5,-28,-11,3
14,-21,-17,-5,-4,-9,7,10,3
5,-9,-26,-8,-2,0,5,-3,3
-7,1,-8,-2,-2,0,5,6,3
3,4,7,3,1,4,20,71,3
-7,0,1,-4,3,-3,-35,-59,3
3,-4,3,-1,-1,0,17,34,3
0,-7,10,3,1,-3,-16,-35,3
-7,-3,-6,0,0,2,8,8,3
0,2,2,1,0,1,9,32,3
1,3,1,0,1,2,12,14,3
9,1,2,-2,-2,-4,-36,-79,3
-11,-2,-3,-3,-1,-4,4,2,3
-18,4,1,0,-1,1,-2,-12,3
2,2,4,2,0,-2,7,34,3
11,-3,-1,-3,0,0,3,16,3
-41,-13,-16,1,-1,-1,1,-12,3
20,15,21,5,1,5,6,-1,3
5,0,2,0,1,-2,-16,-35,3
-2,-3,-10,-4,-4,-2,-1,23,3
4,-3,-26,-6,-1,-2,-17,-97,3
6,6,-2,1,-1,2,21,65,3
2,-4,13,4,-1,1,-7,14,3
-11,-9,-14,0,3,0,24,107,3
-2,3,8,0,-2,-3,-40,-104,3
9,4,0,0,1,3,11,66,3
-17,-11,-14,-8,-8,-7,-5,-10,3
-11,2,9,2,-1,2,9,21,3
8,-2,-7,0,-2,2,5,18,3
18,-1,-3,-1,1,-4,-37,-82,3
-44,-3,-9,-4,-3,1,15,5,3
-1,-4,-8,-3,-4,-2,-1,-57,3
2,7,-1,0,2,1,15,49,3
-6,1,2,2,0,-1,-20,-55,3
10,3,-2,-3,2,0,-9,-13,3
-3,0,0,-2,-1,0,5,46,3
-5,-3,2,-4,-5,-4,2,-11,3
-15,-6,-7,-3,0,0,13,31,3
18,-1,-2,2,-1,1,-6,-36,3
-38,-6,2,0,-2,-5,-5,-56,3
28,2,9,2,0,2,15,72,3
-61,-11,-5,-3,-4,-2,9,9,3
-53,-6,-3,-1,-1,-1,-7,-33,3
4,3,-5,-4,-5,-2,-19,-23,3
-4,3,0,-2,0,-1,4,-10,3
16,2,-3,2,1,1,21,71,3
10,1,-4,0,2,-1,-9,-11,3
4,2,15,2,3,3,-13,-36,3
2,0,5,0,0,1,13,42,3
18,0,-2,0,0,1,-7,39,3
14,3,10,1,-2,-3,13,15,3
1,2,5,2,2,1,10,35,3
27,2,1,2,-2,1,-7,-15,3
-26,-4,-3,-1,0,-2,-7,-22,3
-6,-5,2,0,1,1,-5,2,3
20,4,-9,-2,-1,-2,1,-31,3
-16,3,10,0,2,1,2,21,3
3,5,7,1,0,1,19,74,3
19,-6,-6,-7,-1,-7,-26,-44,3
-35,-3,-9,-2,-2,-1,8,52,3
14,6,8,3,3,2,6,11,3
-6,-3,-9,0,0,0,-8,36,3
24,13,6,-2,-3,-2,20,14,3
14,-15,-13,-1,1,-2,-13,9,3
11,-1,1,0,1,-1,1,-3,3
-14,2,1,-2,-2,-1,7,-30,3
11,2,6,2,0,-1,2,24,3
12,4,13,3,2,1,14,45,3
-2,-4,-16,-7,-7,-8,-33,9,3
49,2,0,-3,-2,-2,-7,-18,3
1,4,-2,1,-1,2,9,48,3
13,7,14,1,0,1,18,48,3
-18,-8,-2,2,1,-2,-18,-72,3
9,1,0,-1,0,1,2,-25,3
-2,-4,-7,0,-2,1,-2,-12,3
-5,0,-3,-2,-3,-4,-3,26,3
-7,-3,3,1,0,1,-4,-36,3
-1,-5,0,-2,-1,-1,2,-2,3
10,11,9,4,3,3,4,15,3
5,4,-3,-2,-2,-3,-11,-39,3
6,0,0,1,-1,0,2,75,3
-61,-5,-7,-4,-3,-6,-4,-7,3
15,0,1,2,1,5,16,91,3
-6,-4,0,-2,-2,-5,-34,-128,3
-36,-1,-2,-1,1,1,15,46,3
30,-2,0,-1,0,2,0,38,3
-2,-8,-2,-1,0,-1,-20,-58,3
-5,-1,3,3,0,0,22,65,3
-5,-4,-7,-3,-2,0,3,19,3
6,4,10,2,1,0,-27,-72,3
-11,-2,-4,-2,-4,-1,14,52,3
5,1,-12,0,0,2,4,27,3
9,6,20,0,2,0,2,-18,3
1,-10,-9,-2,-4,-5,5,36,3
-1,7,-6,-1,1,-1,-7,-33,3
-23,-2,-9,-2,-1,-1,-4,-30,3
17,3,2,0,-1,-3,1,-16,3
-7,2,0,-2,-2,-1,0,-17,3
-4,-8,-4,-4,-2,-2,-2,7,3
-9,-1,4,-1,1,3,6,-17,3
-4,-2,-5,-1,0,-1,-10,-41,3
6,4,2,3,3,6,17,62,3
-52,-12,-8,-5,-6,-13,-21,22,3
2,2,8,-1,-1,-2,16,53,3
-3,-1,-25,1,1,0,4,-4,3
9,8,9,-1,2,1,1,-21,3
12,1,-2,0,0,2,1,-55,3
2,4,12,1,2,1,-2,13,3
-9,-3,-4,-2,-3,0,-3,-19,3
5,-3,-9,-2,-4,-6,-15,-47,3
17,-3,4,4,1,1,13,69,3
3,11,10,-1,-2,-2,-13,4,3
2,-9,-6,-2,-3,0,4,15,3
-11,1,-1,3,1,4,3,-21,3
9,2,0,-3,-3,-3,-9,-17,3
10,-2,-6,-1,-1,0,11,7,3
1,-1,6,0,0,-3,-4,21,3
10,7,5,0,2,5,9,56,3
-48,-8,-10,-3,-2,-4,-10,-80,3
-2,-2,13,2,0,-1,2,15,3
30,6,-10,-1,3,-1,4,-1,3
-19,-4,7,2,3,-1,-1,-2,3
22,2,0,1,-2,2,-7,-19,3
-9,0,-4,-2,-2,-2,-4,-4,3
25,5,37,9,2,3,3,29,3
7,4,-18,-7,0,-2,10,47,3
-3,4,-17,0,1,2,-9,-20,3
-8,-6,5,-1,0,-4,-9,1,3
1,-1,3,-1,-2,-1,8,36,3
1,0,-8,-3,-2,-4,0,-34,3
5,2,7,2,2,2,13,40,3
21,0,-4,1,2,5,-1,-37,3
8,2,-5,-3,-2,1,-3,52,3
-18,-18,2,-1,-1,-6,-13,-38,3
5,4,-7,-4,-1,0,5,-8,3
15,-2,2,1,-1,-2,-18,-83,3
-31,2,-7,-1,-1,0,10,27,3
16,-4,18,3,-1,-1,-4,44,3
10,1,-2,-2,-1,-1,-13,-40,3
-19,-5,-12,-3,-2,-2,18,65,3
-11,-2,-4,-1,-1,-6,-33,-34,3
14,5,0,2,-3,-1,12,-1,3
-24,-4,21,1,-1,-2,8,25,3
5,4,-7,0,0,1,6,6,3
3,3,-6,0,1,1,-9,-88,3
-14,-10,-13,-4,-1,-3,-13,-33,3
28,0,-3,0,-3,-1,4,19,3
-6,-9,-19,-2,1,0,1,1,3
4,-2,16,1,0,1,15,38,3
24,12,-1,-3,0,1,7,38,3
-22,5,-7,-3,-1,-1,-3,23,3
-4,2,1,0,-1,-3,-33,-86,3
-5,4,-7,-3,-1,0,15,6,3
30,0,-4,1,0,-2,0,9,3
6,-9,-5,1,0,0,8,37,3
8,3,6,0,0,3,22,32,3
-33,-3,3,1,0,0,3,-9,3
-20,-2,11,1,-3,-3,-24,-98,3
7,-5,-25,-2,3,0,4,7,3
3,1,5,-2,2,-2,1,16,3
-7,-5,-3,0,-4,-1,0,-6,3
-6,0,4,0,1,3,0,4,3
-3,-1,20,3,0,2,-1,1,3
-3,-3,-29,-4,-1,0,0,15,3
0,-2,-7,-2,-2,-2,3,15,3
-23,1,-4,-1,-1,-3,-8,9,3
35,-11,-2,2,0,1,7,87,3
-16,6,14,-5,-5,-3,-7,-25,3
-8,0,2,-1,2,0,10,29,3
8,1,-6,-3,0,-2,-12,-49,3
16,-3,5,-1,2,1,6,33,3
-6,-2,-2,0,0,0,5,14,3
-8,-7,-9,-4,-2,-2,-17,-8,3
-19,0,1,-1,-1,-1,1,-15,3
0,2,-3,-1,-1,0,6,7,3
6,-2,5,3,-1,-1,-10,-41,3
6,0,-15,-1,1,1,-10,-53,3
5,-7,-9,-2,-4,-2,14,12,3
-47,-7,2,0,2,0,4,-17,3
9,1,-2,-1,-4,-4,7,3,3
1,-4,-10,-3,-1,-2,-8,-48,3
6,10,5,-2,1,4,2,46,3
10,-6,-5,0,1,1,-3,-6,3
-31,-3,0,0,-1,-2,-7,-36,3
29,7,11,-2,0,-3,-5,5,3
-5,-12,-18,-2,-4,2,4,40,3
-9,0,9,-5,-5,-3,-4,-31,3
9,-2,2,3,3,1,2,61,3
-3,1,6,3,-1,2,-12,42,3
-4,-1,-1,-1,2,-3,18,39,3
6,5,3,0,1,-2,-2,23,3
-11,-7,-4,-3,-1,-3,13,28,3
-21,-5,-5,-2,-2,-4,-22,-75,3
3,2,4,2,2,1,-14,-35,3
7,2,-7,1,-2,-2,8,31,3
8,3,4,0,3,2,-5,-22,3
19,1,4,-2,-1,-2,12,19,3
-3,-5,-7,-1,0,1,-6,-12,3
1,7,13,1,-3,-5,-7,-43,3
-24,-3,-2,-1,-3,1,-3,11,3
-1,-1,0,2,-1,1,3,-3,3
-13,-2,4,-2,-1,-2,0,24,3
-10,-3,-9,-1,-2,-2,0,0,3
8,4,2,-1,1,-1,-8,-1,3
18,-2,-2,2,3,3,26,95,3
2,4,2,2,2,-1,-4,2,3
-4,3,-4,1,0,-1,-7,-17,3
-1,-1,5,0,-2,-2,-7,38,3
-2,1,0,0,-2,-3,25,22,3
30,5,1,0,0,3,-1,24,3
-11,-5,-4,-3,0,2,15,12,3
33,6,-1,-1,-2,-3,-23,-10,3
-6,7,10,1,1,2,-4,-9,3
-9,-9,-8,-1,-1,-3,5,14,3
15,-1,-1,-1,0,-3,-9,-15,3
-1,-8,-16,-2,-2,-1,10,25,3
-28,-4,10,-1,-2,-3,-19,-48,3
0,0,-33,-6,-3,-2,9,-1,3
15,-3,19,-1,-3,-1,-9,-29,3
-9,2,-11,-2,0,0,4,-2,3
1,0,-4,-5,-1,-3,-11,-33,3
-9,0,-6,-1,0,2,1,12,3
-12,-4,-10,-1,-3,-4,-10,-14,3
4,-6,12,2,-1,0,16,37,3
-10,4,1,4,3,1,-12,-56,3
-5,-8,8,0,-1,-3,6,32,3
3,3,-4,-3,-4,-1,8,-10,3
20,3,9,3,2,5,-3,-3,3
-59,-10,-6,-3,-4,-4,-1,-23,3
-8,-2,10,3,1,0,4,-35,3
-13,0,-2,-1,-1,-2,-9,-6,3
-3,0,0,0,-1,0,5,30,3
19,-2,-4,-2,-4,3,-2,7,3
-6,7,8,-1,-3,-3,-7,-10,3
11,2,6,0,1,1,8,40,3
-1,-2,-24,-5,-2,-3,-18,-93,3
46,3,1,2,0,1,9,60,3
-35,-2,20,-1,-2,-3,-1,16,3
-12,-8,-11,-2,0,-1,-4,-54,3
-2,1,9,0,2,1,0,15,3
10,-3,0,-1,1,-1,6,8,3
5,0,0,-1,-1,-1,15,31,3
-1,8,31,7,1,1,-35,-52,3
14,-5,-24,-7,-1,-6,5,36,3
-51,-8,-6,-1,-3,-3,-5,-10,3
19,0,4,3,0,-2,0,10,3
2,1,-5,0,0,-1,11,21,3
1,1,8,4,2,0,-13,-56,3
28,6,6,0,2,3,5,27,3
8,-4,-9,-1,-4,-5,-6,-1,3
-17,8,5,-2,-2,-1,-17,-23,3
-10,0,6,1,-2,-1,11,-29,3
4,-5,8,0,1,-3,7,15,3
-3,11,-16,-1,0,2,0,5,3
21,-3,-9,-3,-2,-2,7,4,3
3,-4,6,0,-1,0,-5,12,3
-9,4,3,-1,1,0,-3,-1,3
5,3,17,2,1,4,-2,-51,3
-12,-19,-39,-4,-1,0,-8,-48,3
-41,-2,-2,-3,-4,-4,-10,-8,3
2,3,-4,-3,-1,-3,-5,27,3
1,1,3,2,3,-2,-11,1,3
6,-4,-7,0,-1,1,8,29,3
-3,-4,4,2,2,2,14,55,3
23,3,12,5,4,4,-19,-59,3
-45,-1,-8,-8,-7,-10,-1,20,3
23,5,7,1,0,0,12,47,3
34,4,2,-2,1,-1,7,-2,3
-15,-3,3,-1,-1,-2,15,60,3
30,0,1,0,2,4,-16,-44,3
-8,1,-1,0,0,-1,11,40,3
-8,0,1,-1,0,0,-5,1,3
-5,-3,-13,-5,-1,-3,-15,-86,3
23,-2,15,5,3,3,5,6,3
-27,7,-21,-5,-5,-3,0,27,3
-1,-6,2,1,-1,-1,-1,-19,3
2,2,-1,0,-1,0,26,53,3
-9,1,-1,0,0,-1,-23,-67,3
7,0,13,1,1,2,1,26,3
10,2,1,1,-2,-1,5,0,3
-4,-5,-12,-4,-5,-4,-27,-59,3
-5,-5,-12,0,-2,-1,-1,0,3
-6,4,23,-3,1,-1,5,25,3
4,8,4,-4,-1,-3,-4,12,3
5,-8,-7,-2,-1,-2,4,5,3
-7,-3,-2,-1,1,2,2,4,3
-7,-2,-3,-1,-2,-3,-7,-30,3
-2,-1,-1,0,1,2,2,29,3
-15,0,9,1,1,0,3,-9,3
51,5,1,-2,-1,0,-2,27,3
-15,-3,-12,-3,-1,-1,3,15,3
-4,-1,-5,2,2,5,11,32,3
7,4,-9,-2,-2,-4,5,22,3
-14,-10,-2,-1,-2,-3,-23,-86,3
2,-5,3,0,1,-3,7,49,3
18,-4,4,3,2,2,-7,-7,3
-33,-7,-33,-2,-2,2,-2,28,3
-8,2,16,2,-2,-2,22,23,3
18,4,2,0,-1,-2,3,-24,3
-21,-5,-1,0,-1,-1,3,23,3
11,0,1,-2,0,0,-12,-47,3
-23,-4,-6,-2,0,0,1,-4,3
-4,-3,8,4,1,3,2,2,3
-14,5,-4,-4,-2,-3,-6,9,3
9,7,10,-2,1,4,12,-33,3
5,-1,-5,-3,-3,-1,-6,43,3
17,6,2,-1,-2,-3,5,24,3
-34,-12,-6,1,-1,-2,-7,-57,3
17,0,-11,0,0,1,-5,9,3
3,1,1,1,1,1,5,17,3
-19,-1,-1,1,-1,1,9,7,3
-35,5,14,-2,-4,-5,-32,-107,3
-3,-17,-14,3,2,3,4,27,3
19,16,-13,-4,-2,-2,10,32,3
-8,-13,-13,0,-4,-3,-36,-128,3
27,11,33,1,0,-1,31,69,3
-18,-1,12,-2,-3,-6,-8,-54,3
-23,-4,1,0,-1,-1,18,91,3
3,3,-4,-1,1,1,-7,-21,3
17,-6,-13,2,1,2,-3,13,3
-17,-2,5,-2,-3,-2,1,26,3
-4,-3,6,5,1,1,7,2,3
-5,2,0,-2,3,-1,0,-5,3
21,0,-4,0,-1,0,1,3,3
22,2,4,-5,-3,-4,5,46,3
23,3,-10,1,-1,0,-4,-44,3
2,-2,2,-1,1,1,3,17,3
23,5,-6,-3,-1,-2,-3,-4,3
-3,-4,5,2,-2,0,-3,-7,3
8,-2,4,-1,-1,2,-5,-58,3
12,4,29,5,0,1,11,37,3
3,2,-35,-5,1,0,-11,-4,3
7,10,9,4,3,4,-13,-40,3
-7,-12,-16,-4,-5,-2,25,58,3
2,3,8,-1,-3,-5,-21,-53,3
-12,-7,6,1,3,5,-3,8,3
5,-2,-7,-4,-6,-9,5,70,3
-27,2,-3,1,0,1,-4,-42,3
8,1,-5,1,0,2,4,67,3
-6,-7,-12,-6,-10,-10,-10,-31,3
12,4,-2,-1,2,4,3,18,3
5,1,9,0,2,-1,-10,-16,3
-10,-1,-6,1,-1,-3,7,16,3
-15,-2,1,-2,1,2,-9,-16,3
0,6,5,1,1,0,3,13,3
-24,-12,5,0,-1,-4,-4,-21,3
-4,3,-9,0,-1,0,-4,-25,3
7,0,-18,-6,-4,-4,-1,11,3
-42,-11,-11,-6,-4,-2,5,-6,3
22,2,2,-2,0,0,-3,1,3
21,2,-8,-1,2,1,1,-9,3
6,-2,7,4,2,2,0,-42,3
-27,3,18,-1,-2,-3,5,13,3
7,8,1,1,1,6,-2,17,3
-37,-14,-8,-5,-8,-9,-8,-16,3
35,-9,-8,-5,-9,-7,15,107,3
13,3,-7,2,1,2,-20,-80,3
8,-1,-4,-1,0,0,8,91,3
-14,-9,1,-4,-2,-6,-33,-98,3
20,11,3,3,3,4,7,18,3
-9,-2,2,2,-1,-2,2,4,3
-11,-7,-5,-3,0,-4,-24,-99,3
13,-3,3,1,-4,-4,13,79,3
-13,1,-14,-2,1,2,5,-3,3
13,-1,-4,1,-2,-3,-4,53,3
-1,4,8,0,-1,1,1,-18,3
-2,3,-1,1,2,4,6,12,3
-10,-5,6,0,-1,-3,-4,-32,3
12,9,-1,1,1,3,7,26,3
4,-8,-5,1,2,0,-5,-22,3
0,7,-5,-5,3,3,9,5,3
-9,1,17,-2,-2,-1,13,58,3
17,-5,-7,1,3,-1,-11,-43,3
-5,2,3,-1,-3,-3,-7,6,3
-3,-5,-4,-1,1,1,8,-7,3
11,8,9,1,1,2,6,0,3
-17,-7,-2,-4,-1,-4,-6,65,3
1,3,-4,-1,0,2,8,4,3
3,2,22,5,1,0,-20,-43,3
-34,-2,-29,-3,-3,0,11,16,3
12,5,4,0,2,2,23,19,3
10,0,-3,0,-2,-2,-20,-15,3
-13,-3,2,1,1,0,5,-4,3
1,3,-19,-4,-5,-4,0,-16,3
8,-2,1,-1,-2,-3,2,10,3
-6,-2,11,3,2,0,6,-4,3
-5,8,-36,-10,0,6,0,-19,3
17,2,18,1,0,-2,-14,-21,3
5,2,0,1,-1,2,6,-6,3
18,-5,-5,-1,-1,-5,-2,27,3
20,6,15,2,1,3,14,52,3
-10,-9,3,-2,1,-5,-10,-36,3
-2,-1,-5,-3,-2,0,5,0,3
-2,-3,9,2,1,1,-3,1,3
10,5,3,0,-3,0,5,32,3
-16,3,8,0,1,2,4,12,3
-54,-25,-23,-6,-5,-3,-25,-86,3
-15,4,11,-2,1,-1,-1,-19,3
21,-2,-5,-2,-5,-5,10,51,3
-11,-4,0,1,-1,2,3,-6,3
17,11,11,3,3,5,2,-6,3
-1,-5,-9,-4,-5,0,1,41,3
-61,-5,-11,-4,-4,-8,-11,-29,3
15,11,18,3,4,2,2,-22,3
16,-4,11,0,0,0,-3,-20,3
9,4,-13,-2,-2,0,15,38,3
4,-1,-1,3,1,1,-13,-38,3
-10,-5,3,0,1,0,-5,6,3
7,-2,15,1,0,0,5,10,3
0,2,-9,0,0,-1,-5,-18,3
-7,-4,5,-1,1,0,-2,-7,3
28,-1,-2,2,1,3,7,72,3
4,0,-2,0,0,-2,-6,-10,3
-5,1,-1,0,0,1,5,-2,3
78,4,-5,2,1,5,6,49,3
-47,-15,-3,-6,-9,-13,-18,-48,3
-1,6,-13,-3,-2,-2,-12,-79,3
-16,-2,-1,-1,-1,-1,-5,13,3
24,1,-5,0,2,1,9,54,3
-6,2,11,1,0,-1,-16,-38,3
27,2,11,5,3,1,6,33,3
-6,15,11,-3,-2,-4,-3,-35,3
-5,-10,-2,-1,-2,0,-1,9,3
16,-2,-10,-1,2,5,1,11,3
-18,0,-1,-2,0,-1,10,8,3
-4,-7,4,0,-1,-5,-10,-24,3
1,6,2,0,2,0,5,14,3
3,0,-8,2,1,3,15,10,3
-3,3,13,-3,-1,-2,-17,-12,3
-13,-8,1,-2,-2,-1,-1,-3,3
-21,-4,-4,-1,-3,-4,2,-16,3
-6,-1,-2,-1,0,2,9,-3,3
27,2,-5,1,1,2,0,33,3
-10,5,-2,0,0,0,-6,-48,3
-38,-6,-7,-3,-4,-6,-4,12,3
22,0,-1,0,3,1,3,2,3
-7,2,-1,0,-1,-4,0,15,3
27,-2,-14,-8,-3,0,-9,32,3
-12,-4,-5,-2,1,0,2,12,3
19,-13,-3,0,0,0,-7,-18,3
-7,4,-14,-1,-3,-1,25,99,3
1,-5,12,3,0,-4,-28,-77,3
-7,10,7,0,-2,-1,-7,-11,3
-16,-23,-10,-2,-2,-4,-6,13,3
-2,-3,22,2,-1,0,2,-7,3
-7,-1,-12,5,3,4,9,-45,3
0,-3,-10,-6,-1,-1,8,40,3
-12,11,16,0,-1,-1,-18,-17,3
3,2,-7,-1,0,1,2,-14,3
-1,2,20,-3,0,-2,9,42,3
-3,-7,-6,0,-1,-1,-7,-89,3
-13,6,-5,-2,-2,-2,11,44,3
4,-1,-1,2,1,0,1,8,3
11,-2,-6,1,-1,4,5,23,3
4,4,3,-2,-5,-5,-3,45,3
2,6,22,1,1,-1,3,26,3
-2,-1,-12,0,1,-1,-5,18,3
3,0,-3,0,-1,0,10,25,3
-47,-7,5,2,0,1,-6,-43,3
0,14,-5,-1,-2,-1,-12,-52,3
5,5,2,-2,-2,-5,4,47,3
-2,-5,1,-1,0,2,7,16,3
9,7,4,0,1,0,-16,-41,3
13,-6,-8,0,-1,-1,4,35,3
20,-1,-7,0,0,3,10,1,3
-45,-6,-4,-4,-7,-9,-28,-82,3
22,-3,-4,0,0,3,3,14,3
-15,0,-4,-1,0,-2,11,55,3
-3,3,-7,-3,-2,-1,-27,-81,3
28,-10,-3,-2,0,-1,13,47,3
-9,-6,-4,0,-1,0,-3,-9,3
4,2,-2,-1,0,1,-1,4,3
-12,-3,-1,-2,0,-1,10,56,3
-15,-1,-9,-5,-1,-3,-8,2,3
15,-2,-8,-2,-4,0,5,-1,3
-8,0,15,3,0,1,-1,-27,3
7,5,-10,0,1,3,1,-24,3
-25,1,-2,0,0,2,16,89,3
10,-2,-16,-3,-1,-3,-20,-84,3
-9,0,3,0,0,0,12,61,3
-11,-4,4,-1,1,-1,-3,-32,3
2,2,-13,-2,0,1,-9,54,3
9,-2,0,1,0,0,6,-4,3
-1,2,-11,-4,-3,-3,-1,-14,3
7,-8,2,1,0,-1,-9,-14,3
-1,2,0,3,0,0,3,-3,3
-19,-2,3,-2,0,0,3,28,3
19,7,-4,-1,-1,-4,-9,-1,3
-43,-10,-1,-2,-4,-2,-5,-28,3
7,4,3,1,0,-1,3,-48,3
-5,-2,4,0,-1,0,8,33,3
9,2,9,-1,-2,1,-2,25,3
-3,-1,-9,-3,-1,0,3,64,3
-11,-3,7,0,-2,0,-1,-53,3
1,-1,-3,-4,0,-1,13,52,3
-3,-4,2,2,-2,-2,-8,-86,3
-4,4,-6,-1,0,2,-1,5,3
-26,1,2,0,-2,0,2,6,3
15,1,6,3,3,-1,2,59,3
-17,-4,-3,2,1,0,-11,-46,3
14,1,6,0,-1,-1,-2,-23,3
9,-3,-4,-1,0,-1,29,103,3
-14,1,-4,0,-3,-3,-20,-67,3
-9,-4,-4,0,-2,-1,2,51,3
3,2,-1,-3,-1,-1,-11,-36,3
18,-3,-12,-4,0,0,-1,40,3
-4,-3,7,3,-5,-1,1,-37,3
-3,8,1,-5,-1,-2,-14,-79,3
-19,-9,-15,-5,-2,-5,-2,47,3
15,4,10,1,0,4,-1,-18,3
-4,0,3,-2,0,-4,-13,-22,3
-5,-1,-5,2,1,2,0,-4,3
32,3,9,2,0,0,12,-9,3
-19,-5,-1,-2,-2,-5,-12,-54,3
2,1,3,1,-1,4,4,9,3
8,-1,-10,-2,0,-1,10,49,3
2,0,3,-1,-4,-3,-15,-28,3
17,2,0,1,1,0,-7,31,3
13,2,0,0,0,1,5,-44,3
18,-2,1,-1,1,2,12,34,3
21,3,22,3,0,-3,-14,-28,3
-49,-11,-19,-2,-3,-4,1,-11,3
0,10,31,2,-1,0,6,98,3
-7,-8,-8,-4,-3,-2,-3,-60,3
40,3,3,4,4,5,17,8,3
-5,-1,-2,-1,-1,-4,-21,-55,3
-24,-5,3,1,0,2,14,37,3
2,-5,-27,-5,-2,-1,-3,5,3
-31,-6,-9,-3,-2,-5,3,2,3
23,11,5,1,-1,2,1,-16,3
-60,-5,-9,-1,1,0,-9,-63,3
-3,3,5,-1,-2,-1,2,52,3
-18,-6,-9,-4,-3,-3,-18,-103,3
15,3,3,0,3,2,7,19,3
13,0,-1,-4,-2,-3,-4,42,3
3,4,21,4,2,2,-3,-16,3
-15,11,-14,-2,0,0,2,33,3
17,1,10,3,-1,2,14,81,3
30,4,2,1,0,-2,-5,-44,3
-10,-2,3,1,1,-4,-9,27,3
-17,-3,3,-1,-1,0,-9,-57,3
5,-7,-4,-3,-2,-3,14,14,3
13,2,-4,0,1,0,-7,-18,3
7,-6,-9,1,-2,2,0,-39,3
0,6,37,4,-1,0,0,14,3
8,3,-18,0,0,1,6,69,3
-8,3,20,1,1,-1,-25,-95,3
-16,-11,-8,-7,-9,-7,4,-40,3
31,-3,-2,1,3,5,22,117,3
13,2,-19,-6,-1,-3,1,-5,3
13,0,-11,-2,-3,-3,-10,-12,3
-1,3,-3,1,2,3,-5,12,3
24,-5,-2,-1,-1,-2,14,30,3
-21,-8,-8,-3,-4,-1,-5,-26,3
8,0,-10,-1,0,1,5,8,3
2,3,1,-1,0,-1,-3,-16,3
-11,-18,-35,-8,-2,-3,0,28,3
-2,7,16,2,1,0,-16,-66,3
3,-2,-2,0,-1,-1,12,48,3
1,5,4,-1,2,0,3,-3,3
8,2,7,3,1,1,4,24,3
2,0,7,1,-2,0,-11,-40,3
24,3,-2,1,3,5,29,103,3
-16,-8,-5,-2,-5,-5,12,32,3
3,5,-1,3,-1,0,-6,-33,3
-6,-2,5,-1,-2,0,-11,-47,3
-23,-5,-1,1,-1,1,-7,42,3
-15,3,11,4,2,3,7,-56,3
-14,3,-25,-7,-2,-5,-14,-11,3
10,-7,3,0,-2,-2,-21,-87,3
1,1,-3,-3,-4,-4,23,76,3
8,-8,7,3,2,2,-8,-31,3
-23,8,12,-2,-4,-3,0,-17,3
7,1,7,4,4,1,4,24,3
-11,-4,-14,-7,-3,-3,-5,-38,3
0,0,-13,-4,-2,-2,0,23,3
13,2,6,2,2,2,5,-3,3
-9,-2,-4,-2,-2,-3,1,17,3
10,1,6,3,2,-1,4,48,3
8,1,-4,-4,0,-5,-13,-33,3
6,-3,5,-1,1,2,-11,-105,3
-47,-2,-1,-2,-3,-2,21,99,3
10,-1,-2,0,-1,1,6,72,3
10,1,-1,-1,0,-2,-16,-7,3
-4,-1,-2,4,3,4,14,33,3
2,-1,2,-3,-3,-2,16,48,3
4,-4,3,0,-2,-2,-17,-31,3
3,10,28,3,-1,1,1,3,3
-13,-7,-6,-2,0,-1,-7,2,3
15,0,1,1,2,2,9,47,3
13,1,18,2,0,0,-10,-13,3
-11,1,-13,-3,1,2,12,49,3
-19,-2,0,-2,-2,-5,-11,-35,3
26,1,2,3,1,2,-4,-49,3
-26,3,-7,-4,1,-2,-3,20,3
-7,-4,-4,2,-2,-1,-4,-68,3
-12,-10,-12,-5,-6,-5,14,85,3
13,-5,-14,-1,1,2,-7,-41,3
24,3,0,1,-1,2,17,32,3
-28,0,-4,-1,1,-1,-12,-17,3
2,-2,-4,0,-2,0,1,58,3
-18,1,7,1,0,-2,-19,-79,3
12,0,-4,-3,-5,1,9,5,3
20,-3,2,1,0,5,18,64,3
23,5,0,1,-1,-2,2,6,3
-39,-2,0,-3,-3,-6,-15,-18,3
-6,-2,7,1,2,2,-5,-69,3
-3,0,-19,-5,-1,0,12,13,3
8,0,2,1,0,3,6,11,3
-13,3,-2,-2,-2,-2,-11,-22,3
-12,-12,-8,-2,-2,-2,-14,-82,3
3,6,22,2,-2,0,-2,1,3
7,3,4,0,0,-1,-1,5,3
16,-6,-5,1,0,1,3,7,3
-18,4,5,2,0,-2,-9,-21,3
3,-7,-25,-4,-2,-1,-2,18,3
-3,-4,2,0,-2,0,-6,-6,3
30,1,-7,-2,-1,0,9,25,3
3,-1,-4,-5,0,0,-3,-25,3
22,3,5,-1,0,-2,-2,6,3
-11,3,1,3,1,1,4,59,3
-19,-6,-6,-5,-4,-5,-24,-58,3
29,7,-2,0,-2,1,20,81,3
-24,-3,-2,-3,-1,-3,-19,-2,3
-10,-2,3,-2,0,1,12,49,3
14,2,8,-1,-1,1,-6,7,3
3,-3,-3,0,0,2,2,2,3
17,1,5,2,1,2,17,91,3
-17,-4,-1,-3,-2,-6,-25,-128,3
-6,5,22,4,3,4,26,51,3
-18,-7,-15,-3,-3,-4,-23,-86,3
7,4,6,-1,0,2,2,-12,3
-1,1,-2,0,0,2,2,-1,3
2,5,24,0,-1,0,1,16,3
0,-4,5,-1,-1,-1,4,5,3
5,-7,-11,1,0,-2,-7,-37,3
10,4,7,-2,-1,-2,-2,19,3
0,0,1,0,2,0,6,7,3
3,-5,-13,-1,1,3,1,-4,3
0,6,-3,1,2,2,-9,-58,3
12,0,-3,0,2,3,14,91,3
-18,0,-10,0,-2,-1,-24,-77,3
-13,0,-3,0,1,-5,9,78,3
-26,-8,0,-1,-3,-4,0,-48,3
2,1,3,-1,1,1,1,1,3
2,3,-7,-2,1,-1,1,12,3
34,2,9,0,-2,1,1,-20,3
0,-7,-10,-4,-3,-6,-4,18,3
-1,2,8,1,-1,0,1,-6,3
21,3,-3,-2,-1,-2,6,55,3
-7,2,0,-1,-2,-3,-12,-45,3
8,0,8,-1,1,1,12,52,3
-2,-4,-21,-5,-4,-6,-21,-108,3
10,0,-8,-3,-2,-1,7,35,3
-7,-15,-8,3,1,1,8,13,3
-3,5,18,0,-1,2,-8,-37,3
-22,-6,-2,0,-1,-1,-2,34,3
-6,5,4,0,-2,-4,-8,-90,3
-18,0,-4,0,-1,-3,3,44,3
4,3,-6,-1,-1,-1,-1,-12,3
-26,2,-1,-3,2,2,3,15,3
-5,-5,-2,-2,-3,-3,-4,-31,3
-16,0,0,0,0,-1,-7,4,3
-20,-3,0,-2,-1,-4,-6,-33,3
47,5,6,3,-2,1,-3,-28,3
-7,-4,-6,0,0,1,12,49,3
22,0,-7,-3,-4,-2,-1,23,3
3,-6,-1,0,0,1,1,31,3
5,4,17,2,2,0,-9,-37,3
23,-6,2,3,1,2,7,29,3
4,9,-17,-1,4,4,21,0,3
-10,-1,0,-2,-1,-1,-26,-52,3
-2,-11,-1,-2,-3,-5,15,87,3
2,2,-3,0,0,0,-7,-35,3
-7,-1,3,2,-1,-1,-2,1,3
22,7,4,1,2,2,2,10,3
6,-6,-8,-3,-2,0,2,-5,3
-16,-3,-2,1,-4,-2,-4,-19,3
25,-3,2,-4,-1,-2,-1,16,3
11,1,-7,0,-2,0,7,44,3
-7,0,2,2,-1,-1,-5,-7,3
-7,-1,-2,0,0,0,6,33,3
-7,1,5,-1,1,0,-4,34,3
4,-1,0,2,1,0,1,1,3
-16,-3,-9,-5,-1,-5,-23,-70,3
8,3,-1,1,2,1,8,19,3
-7,0,4,-2,-2,-1,-1,17,3
2,-5,-2,0,3,1,6,57,3
-24,-1,-8,-1,-1,-1,-9,-42,3
4,-10,-7,-6,-3,-1,6,27,3
3,-2,-23,-2,-1,1,-9,-46,3
-27,-5,-7,-3,-2,0,4,-1,3
33,17,0,-1,0,0,8,17,3
-17,-6,-1,-2,-2,-1,-8,-4,3
-22,-9,0,-1,0,-4,4,0,3
5,1,0,1,0,0,-1,-18,3
8,1,6,2,1,1,-1,3,3
5,6,3,2,1,4,13,46,3
-7,7,10,-1,-5,-7,-23,-1,3
-1,0,-3,-2,-3,-5,3,44,3
14,-2,3,0,-1,1,9,2,3
15,4,-1,2,1,4,8,50,3
-4,-2,2,1,1,1,4,-27,3
1,-1,1,-2,-2,-2,-1,-26,3
5,-4,-9,-1,0,2,11,41,3
3,1,0,0,-1,-3,-13,-17,3
22,5,3,-2,-2,0,4,-28,3
-5,-2,14,-2,1,2,4,30,3
-8,-3,3,-2,2,0,-3,-35,3
4,-2,3,-1,0,-2,-9,-41,3
-21,-3,2,-1,-1,2,-5,-16,3
11,5,0,2,0,0,8,21,3
13,-6,-2,0,0,-1,15,70,3
-7,-5,-18,-6,-1,-2,-7,-37,3
26,5,3,1,2,0,7,15,3
0,-4,-2,-1,-1,0,-13,-10,3
-27,-6,-5,-1,-1,-1,-8,-20,3
-11,1,9,-1,-2,-4,2,11,3
2,-5,0,2,0,0,-1,30,3
-2,-1,-5,-2,-3,-4,2,2,3
-8,3,5,3,3,3,6,-22,3
-13,-1,1,-3,-4,-6,-28,-74,3
-6,1,0,0,3,2,6,0,3
43,5,8,2,0,3,4,-28,3
-7,0,-4,-3,-4,-2,4,69,3
-12,-3,-3,-1,0,2,13,31,3
2,5,4,-1,-2,-2,-5,-29,3
-30,-4,1,-5,0,0,-2,-16,3
-16,-1,-21,-3,-1,-1,-5,-8,3
16,-1,6,-2,-2,-3,0,9,3
-9,2,-1,-2,0,1,-10,-22,3
-10,1,13,2,-2,-2,8,-5,3
36,12,28,2,0,-2,-13,-29,3
-17,-6,0,3,5,0,4,21,3
2,1,14,2,0,-1,4,-9,3
17,-2,-7,2,-1,-1,0,10,3
-16,-3,0,-3,-2,-7,-29,-92,3
-2,1,-1,0,0,2,8,-6,3
29,6,2,-1,2,0,8,4,3
-34,-4,-1,0,-1,2,5,14,3
14,1,5,2,0,-1,9,50,3
-28,-17,-6,-1,-2,-3,-14,-70,3
-10,5,-1,-1,0,1,-4,-19,3
14,1,-6,0,-2,-5,-6,39,3
-29,-8,-40,-9,-5,-5,-10,-60,3
17,-2,-15,-2,-4,3,14,78,3
-25,-3,17,-2,-1,-1,-8,-9,3
-8,-2,-8,-4,-1,-1,-10,-38,3
0,2,10,4,0,2,17,74,3
1,-6,-22,-5,-1,-3,-12,-26,3
21,-5,-10,-1,-2,-4,-4,-4,3
12,9,18,5,3,1,1,3,3
-21,-5,-3,2,3,3,5,7,3
-6,3,4,-3,-1,-2,3,72,3
-7,-6,-3,-1,-4,-4,-22,-63,3
3,-10,-6,-3,-1,-3,7,23,3
-8,4,2,-1,1,1,6,27,3
30,6,6,1,1,1,5,45,3
9,-3,-4,2,0,3,10,10,3
-8,2,-6,-2,-3,-4,-12,-18,3
14,-5,1,-2,-5,-3,3,-13,3
-12,-5,-15,-3,-1,-1,-6,-32,3
-1,0,9,0,0,0,5,47,3
4,-9,-23,-4,0,1,-2,-19,3
10,8,-7,0,-1,2,4,18,3
3,7,25,2,-1,-2,0,-11,3
-27,-1,-6,-1,-1,1,0,-30,3
-5,-5,-9,-3,-3,-3,0,14,3
-4,-8,-1,0,1,2,-3,44,3
5,10,10,-1,-4,-5,4,41,3
9,-4,4,0,-1,-1,6,51,3
14,12,12,2,3,5,20,21,3
-11,-10,-24,-7,-5,-11,-40,-37,3
26,3,0,1,1,1,15,59,3
-8,1,-6,-2,-2,-2,-17,-54,3
-19,-4,-2,-1,-1,0,11,43,3
-12,-2,10,1,1,2,-1,-93,3
-2,1,-2,-2,-1,-1,-6,-34,3
-20,1,-6,-1,-3,-2,2,8,3
5,0,0,-1,0,0,-6,-38,3
2,3,7,1,2,0,13,34,3
-9,-8,-23,-6,-1,-3,-15,-34,3
2,-3,-2,-1,3,2,5,11,3
11,6,2,0,0,-1,-8,-14,3
8,-9,-12,-1,-1,-3,1,-15,3
-35,7,5,0,2,4,16,6,3
3,-3,10,-1,-4,1,-16,-33,3
-2,-5,-11,-1,-2,-4,-12,-26,3
-3,9,9,0,2,0,7,7,3
8,-7,3,3,1,0,16,53,3
4,-4,-11,-2,-1,-2,-15,-17,3
-38,0,17,2,-3,-6,-24,-86,3
6,4,-3,-3,0,1,4,41,3
17,-1,0,1,0,1,2,15,3
-12,-4,-1,-1,-1,-5,1,25,3
8,0,-12,-4,-1,1,3,63,3
2,2,6,2,2,3,-10,-34,3
-12,-3,-6,-2,-4,-5,-13,-71,3
22,4,5,-1,-1,0,21,65,3
-33,0,3,1,2,3,-23,-69,3
-28,-5,-2,-4,-4,-4,11,26,3
9,-2,-4,-1,-3,-1,3,55,3
-5,2,14,3,1,0,4,-6,3
23,3,-11,-1,1,1,14,48,3
20,-1,2,2,1,1,11,55,3
-21,0,-4,0,-1,-5,-34,-128,3
-2,-4,-7,-4,-2,-3,-3,4,3
10,5,7,0,1,0,6,29,3
0,-10,-2,1,-1,-2,9,11,3
25,1,-3,3,3,2,2,-16,3
-7,-1,2,2,0,1,-17,-26,3
6,1,18,1,-1,-2,4,17,3
-20,-3,-8,0,0,1,-3,-31,3
-6,0,1,-1,0,1,-1,11,3
3,2,-3,-1,2,1,9,29,3
-36,-7,3,-2,-2,-2,3,-60,3
16,4,5,-2,-2,-5,-22,-1,3
7,0,8,-1,0,2,16,71,3
9,4,-6,0,1,1,0,-1,3
26,-4,-11,-1,-2,-1,1,28,3
-20,0,-1,-4,-2,-2,-1,-12,3
30,7,8,1,0,2,9,37,3
-1,-10,-7,-2,-1,-6,-9,-13,3
6,-4,-9,-2,0,1,4,41,3
-2,-2,9,3,0,0,-17,-37,3
6,15,16,-2,-2,-2,13,70,3
3,2,-1,0,1,1,16,31,3
-4,-9,13,0,-4,-1,2,17,3
-1,10,1,2,-2,1,-4,-22,3
-4,-3,7,1,-1,1,-13,-26,3
-3,9,7,-2,-2,-1,0,3,3
-7,4,-7,-2,0,-2,-1,-16,3
10,-4,-2,1,2,2,5,7,3
-19,-6,-10,-4,-1,-3,-5,-25,3
-2,-2,-9,-1,-1,0,4,-9,3
4,2,0,1,2,2,-3,10,3
-5,-4,10,1,0,-1,4,2,3
-2,0,-27,-1,2,3,12,29,3
-8,0,1,1,-2,-2,-44,-100,3
-38,-6,-20,-8,-7,-10,-14,-23,3
-12,-1,-3,-1,-2,-3,5,46,3
21,-3,5,-1,-1,-1,1,18,3
-17,-3,-5,1,1,2,5,-26,3
23,-1,3,1,0,-1,12,64,3
22,4,7,0,1,1,2,28,3
-11,-4,1,-2,-1,-3,-18,-84,3
-4,3,3,1,1,2,-6,12,3
11,0,0,-1,-2,1,24,59,3
2,-5,-14,-3,-3,-3,0,-9,3
2,6,10,2,2,1,2,15,3
8,-8,-8,-2,-2,0,7,12,3
-3,2,0,-2,0,-1,-12,-40,3
6,1,9,1,1,3,10,-3,3
-11,-2,-11,-6,-2,-3,-10,8,3
-61,-3,-1,-4,1,-2,-5,-89,3
8,-3,-5,0,-1,-1,-1,57,3
-9,0,4,-1,0,0,1,-30,3
-18,-8,-1,0,-2,-2,13,16,3
19,-2,-11,0,0,-1,-4,33,3
13,5,20,0,1,-1,11,76,3
-12,4,-11,1,2,1,-36,-93,3
13,1,21,1,-1,-2,0,22,3
12,3,12,1,1,1,24,48,3
-14,-1,-8,1,3,1,-1,-57,3
27,2,-2,-1,-1,0,3,22,3
-14,-7,-3,-1,-2,-2,-5,24,3
20,0,10,0,0,-3,-5,-7,3
4,9,9,-1,-1,-1,-12,-41,3
0,4,6,-1,-2,0,13,32,3
-13,-6,-10,0,2,1,-5,-36,3
-2,1,3,0,-3,-2,6,49,3
-1,-3,-23,-5,-3,-2,-10,-49,3
3,-6,-9,0,0,-1,22,80,3
5,11,-4,-3,1,2,-22,-99,3
24,-2,-4,-3,-3,-1,-6,34,3
10,-7,-5,1,-1,0,9,-4,3
-17,-2,4,-4,-2,-2,-2,30,3
-12,0,0,2,-1,-2,-5,-26,3
17,-5,-8,-1,1,0,16,32,3
6,3,1,-2,-2,0,-4,14,3
-6,-4,-4,-3,-2,-3,5,43,3
40,1,25,6,3,3,7,17,3
2,4,-31,-4,-1,1,4,39,3
-6,3,6,-1,-1,-1,-13,-28,3
0,-2,-12,0,1,3,0,-10,3
-6,1,0,-1,-2,0,-1,51,3
-5,-1,12,0,-3,-3,-11,-84,3
4,1,-4,0,3,2,4,13,3
-4,-4,-10,-4,-2,-3,0,53,3
-15,-6,-23,-4,-3,-2,-12,-60,3
-10,-4,-2,-2,-5,-4,8,28,3
11,0,3,1,-1,0,-2,20,3
-14,-1,7,-1,-2,-2,-8,-39,3
-17,-4,-3,-2,0,-3,0,7,3
-4,-1,1,-2,-1,-1,6,8,3
-7,-2,0,0,2,3,2,-1,3
17,2,4,-1,-2,-2,-3,-7,3
2,-3,-4,-2,-1,-2,-2,5,3
10,2,-1,0,1,0,-9,-20,3
1,-3,1,-1,-2,-4,0,-4,3
11,5,3,1,2,1,-1,-52,3
-27,-2,-1,-3,-5,-5,3,-10,3
-6,0,2,-1,-2,1,-5,14,3
3,1,1,0,2,5,12,50,3
-15,-1,-1,0,0,1,-9,-123,3
-28,-3,7,0,-3,-5,-9,4,3
-5,-1,-3,-1,-3,-2,9,37,3
0,0,-22,-6,-4,-1,-12,-43,3
0,1,1,-2,1,1,12,67,3
37,4,0,1,1,2,3,-19,3
-11,-5,6,-1,-1,-2,-7,-7,3
-5,-1,6,1,-1,-2,1,28,3
8,1,8,0,-2,-3,-11,-17,3
6,-6,-20,0,-2,0,15,22,3
-17,3,32,2,-1,-6,-13,-29,3
10,3,2,1,1,0,2,-28,3
-5,0,0,-2,-2,-1,-8,14,3
7,-3,-12,3,2,4,16,68,3
19,8,12,3,2,2,4,-15,3
-2,-4,9,-1,-3,-8,-15,25,3
-16,1,5,2,2,0,-2,-52,3
-10,-7,-7,-3,-2,-2,-10,10,3
23,-1,-16,-2,0,1,8,22,3
-31,-1,2,1,0,-2,-6,-36,3
17,2,13,4,3,2,10,60,3
16,2,-14,-5,-4,-2,-3,-11,3
-6,-1,-8,0,3,4,0,-36,3
6,-5,-3,-3,-3,-5,1,-1,3
-1,-2,-6,-2,-1,-2,-4,-21,3
-17,2,15,3,2,1,3,-4,3
7,-5,-4,-1,-1,-2,0,8,3
-6,1,-5,2,2,3,-5,4,3
-8,-4,-18,-3,-3,-2,3,-48,3
-1,3,18,-2,-2,0,2,21,3
-16,-4,-9,-1,-2,-2,-1,35,3
-8,-1,-3,1,-2,-1,-21,-104,3
7,-3,-10,-4,-4,-1,1,37,3
23,5,5,3,1,2,-1,2,3
-1,-2,-15,-3,-1,0,8,17,3
15,2,11,0,1,1,7,-10,3
1,0,6,1,1,-2,-3,0,3
-36,-8,-18,-3,-3,0,0,0,3
-2,7,6,1,3,1,-10,-15,3
-9,-1,-4,-3,-2,-2,15,22,3
-13,1,4,-1,-1,0,-1,-38,3
8,2,2,1,2,-1,5,6,3
3,2,1,-1,-1,1,6,49,3
-3,-3,-6,-1,-1,-3,-18,-65,3
4,-3,5,-1,-2,-2,6,63,3
6,4,4,1,2,-1,-8,-7,3
-23,-7,-8,-2,-2,-3,7,39,3
8,-1,18,3,1,1,-9,-31,3
2,-1,-26,-3,-1,-1,-1,-3,3
11,6,19,2,-2,-2,-3,-29,3
7,-9,-9,-3,1,1,1,-16,3
-4,0,-8,1,1,4,14,67,3
10,-3,3,0,-4,-5,-13,-39,3
-3,-6,-5,-3,-1,-2,-18,-22,3
-2,13,2,1,-3,0,-10,-40,3
-2,-4,-7,-3,1,1,23,61,3
26,2,1,0,0,-1,4,48,3
11,-1,-1,1,1,1,11,15,3
-2,-4,12,-3,-4,-9,-19,-18,3
-11,-1,-12,0,2,3,4,-6,3
-9,1,-2,-6,-2,-3,-2,-28,3
-4,-1,0,0,-2,1,2,11,3
-3,-1,4,0,0,0,-4,-29,3
3,-1,4,1,-1,-1,10,24,3
-3,-1,2,-1,2,1,-7,-26,3
-6,2,-5,-1,-2,-2,-15,-80,3
-2,-1,0,1,-1,0,13,26,3
-9,-1,-3,-1,-2,-1,0,15,3
3,-4,-3,2,-3,1,-14,-2,3
-4,2,-23,-5,-1,0,10,27,3
-6,-5,-13,-1,-1,-2,6,9,3
-9,5,19,-1,-1,-2,-8,-5,3
1,4,25,3,0,1,2,20,3
17,-2,8,2,1,0,4,23,3
-2,-3,-3,-2,-1,-1,-12,-2,3
8,1,-5,-2,-1,-2,8,54,3
-8,-1,-4,1,1,2,8,41,3
3,-2,14,-1,-2,-2,7,12,3
23,6,-5,-2,-2,-2,-17,-27,3
4,0,-7,-5,-1,-2,-2,-6,3
-6,2,-6,-3,1,1,-2,-46,3
13,0,0,0,2,1,-1,25,3
2,-2,-1,0,0,-1,4,3,3
-11,-3,-4,-2,1,1,-10,-18,3
5,0,-3,2,0,-2,-1,-9,3
0,2,2,-3,-1,-1,-1,-25,3
-2,-1,-2,1,-1,0,0,7,3
9,0,1,0,-3,0,0,2,3
-9,-2,0,0,-1,1,1,-7,3
-6,-3,-2,-1,0,0,-2,14,3
0,2,5,0,0,1,-2,-21,3
-15,-3,-5,-2,-2,-3,6,5,3
-5,3,0,2,1,0,5,49,3
-17,-1,-15,-4,-4,-2,-6,-23,3
8,-3,2,-1,0,0,-2,16,3
9,3,-1,1,1,0,-2,-30,3
-3,-2,-17,-3,1,0,-4,16,3
-2,6,20,2,-2,-1,11,18,3
-27,-8,-21,-5,0,1,4,12,3
3,-6,-1,2,-4,-1,-6,12,3
-31,-4,-3,0,-1,-3,3,10,3
10,0,-3,-1,3,1,2,1,3
-8,-6,-6,-4,-2,1,-10,24,3
-3,3,-16,-4,-3,-3,-3,-60,3
-3,-1,7,2,1,2,3,3,3
-10,-4,-18,-2,-1,-1,-4,24,3
-2,3,4,2,-1,0,10,-25,3
4,3,6,1,1,2,-9,-15,3
10,2,5,-1,-1,0,6,10,3
-8,1,1,-1,0,-2,-1,-2,3
-9,-3,2,-1,-2,-2,4,2,3
-8,-1,-3,0,-1,0,-17,-78,3
7,-1,1,-1,-4,0,1,24,3
-20,-3,4,-1,-2,-1,-1,12,3
8,3,0,0,0,2,-3,-22,3
-6,-3,4,-1,0,-2,2,8,3
-2,-1,0,0,-1,0,-8,-57,3
-12,-1,-10,-3,-1,-3,-3,-11,3
46,-7,-3,0,1,2,8,9,3
18,1,11,3,-1,-4,5,29,3
-2,2,-17,-1,2,4,-1,-17,3
4,-7,-10,0,-1,-3,3,-13,3
-8,1,12,0,-3,-1,-4,-11,3
14,5,14,4,1,1,9,66,3
-7,-9,-10,-6,3,0,-1,-62,3
7,7,7,2,2,-3,-10,-37,3
-9,1,6,0,-2,-2,6,55,3
5,-4,-8,-1,0,1,1,13,3
3,0,4,1,-1,-1,0,37,3
6,-3,-4,-3,-1,1,5,82,3
3,4,6,-1,0,-1,-1,-53,3
-6,5,2,1,0,1,2,-1,3
26,0,4,0,-1,-1,1,15,3
8,-1,11,1,0,0,-2,30,3
-21,1,11,0,0,-2,2,-66,3
7,0,-7,-2,0,2,1,21,3
-36,8,4,2,-1,-2,8,20,3
-18,-6,2,1,-3,-4,-19,-31,3
2,3,3,0,0,-1,6,38,3
-7,-4,3,0,0,0,1,42,3
3,0,-16,-4,-3,-2,-14,-82,3
8,-2,1,0,0,2,10,12,3
-4,0,-2,-2,-1,0,-4,12,3
-12,0,-1,-1,2,2,3,-2,3
-9,-7,-5,-2,-5,-5,-6,19,3
0,2,17,0,-3,-4,-3,-48,3
16,-2,-28,-2,-1,2,9,58,3
1,-7,4,-6,-2,-8,-17,-9,3
9,-3,10,2,1,1,-4,12,3
-1,3,-12,-3,-1,0,33,101,3
-2,-2,2,0,0,-2,-27,-21,3
-5,6,-4,2,0,3,4,-46,3
-42,-11,-5,-5,-1,-2,-2,-1,3
16,-1,0,1,1,2,9,73,3
-5,0,1,1,0,-3,3,-36,3
-1,-2,-10,-2,-2,0,-1,-18,3
38,10,22,3,1,-1,1,14,3
0,-9,-6,0,-1,2,-4,-51,3
1,-4,-4,1,1,-1,-11,-65,3
-19,-3,-7,-3,-2,-4,-7,15,3
6,2,21,1,-1,-1,2,8,3
-16,1,-11,0,4,2,-6,-46,3
14,-1,-1,-2,-4,-4,5,66,3
19,-2,4,1,0,1,6,30,3
-12,4,0,1,1,0,-5,2,3
9,1,-2,-2,-3,-3,1,32,3
-6,-2,-1,0,0,1,8,23,3
13,2,2,0,0,-2,6,-11,3
-4,-5,-8,-2,-1,0,4,17,3
38,2,3,-1,-3,1,-5,2,3
30,-1,-7,2,2,-1,2,7,3
-16,0,9,0,-3,-2,-4,-3,3
5,3,0,-3,0,-1,3,32,3
-32,-6,0,-3,-4,-3,-11,-29,3
-7,-7,1,0,-1,2,4,24,3
5,-1,-18,1,1,1,-4,-27,3
-7,3,-2,-2,-1,-2,2,7,3
-7,0,2,2,3,2,13,28,3
-55,-6,-3,-1,0,-4,-38,-106,3
-1,-4,5,-1,-3,-3,8,45,3
-19,0,-20,-8,-6,-7,-8,-51,3
-3,-5,3,2,1,0,-2,2,3
43,7,4,1,0,1,10,33,3
17,7,22,4,0,6,19,55,3
21,-8,-13,1,2,-3,-20,-11,3
-3,4,1,-1,-3,-2,-1,3,3
-5,0,-6,-3,0,-1,1,18,3
-22,0,4,-2,1,1,-3,-33,3
15,0,5,0,-1,0,10,41,3
1,0,-5,0,-1,-4,-9,-35,3
-32,0,6,1,1,-1,12,27,3
14,-2,-18,-1,-1,-1,-6,-18,3
8,0,31,4,1,0,-5,5,3
10,8,-11,1,1,0,9,-9,3
-3,-8,-5,-3,-4,-6,-12,-39,3
19,-4,-6,-5,-2,-5,-7,-28,3
-14,-9,-11,0,1,4,27,86,3
9,3,-1,-1,0,-3,-42,-107,3
-24,5,8,-1,0,3,20,50,3
-14,0,-6,-1,1,-1,-22,-68,3
-1,-10,-24,-4,0,2,4,18,3
-12,-4,0,-2,-2,-3,19,42,3
7,4,-2,0,0,2,6,2,3
-3,-5,-10,-3,0,-3,-9,16,3
-8,8,8,3,1,4,-3,-41,3
-45,-4,1,-2,-1,-2,-4,-36,3
4,-4,-5,-2,-4,-5,-12,19,3
-5,10,14,4,0,1,6,-6,3
19,-7,-10,1,-2,1,15,81,3
12,-7,-18,-4,-3,-3,-26,-39,3
2,-2,3,-2,0,-2,6,41,3
1,-4,-2,-1,-1,0,8,30,3
12,5,-4,-3,-3,-5,-10,-50,3
-4,-3,1,1,3,3,-1,-53,3
13,5,4,0,-2,-2,14,37,3
33,-3,-24,-7,-1,3,13,80,3
-12,3,6,-1,-3,-4,-26,-90,3
-13,-3,7,1,1,2,2,-45,3
8,-1,2,2,2,1,-5,-60,3
-5,-1,8,0,-1,-1,-10,-15,3
-3,4,3,1,1,-1,3,7,3
-1,-5,-19,-2,-1,0,-1,23,3
3,1,3,0,-2,-2,23,90,3
-11,-2,-3,1,-2,-2,-10,-64,3
6,-3,-5,-2,1,1,-4,15,3
-10,1,4,-1,-2,-3,5,26,3
21,6,-10,2,0,5,5,58,3
16,-4,-2,-2,-3,-6,11,28,3
-8,10,11,1,2,1,6,0,3
28,-7,-1,1,-3,-1,-3,31,3
-56,-8,-2,-5,0,-1,-27,-99,3
-9,-2,1,0,0,-2,1,13,3
3,-4,2,0,-1,-1,3,10,3
19,9,12,3,1,3,23,102,3
-16,4,0,-2,-4,-5,-32,-79,3
-16,-3,-8,-2,2,-1,-8,-29,3
3,5,-1,-1,0,-1,-4,7,3
-1,3,0,-1,0,-1,7,32,3
20,-4,0,-2,-1,1,13,-25,3
0,2,5,1,0,0,-6,-28,3
6,-1,7,3,0,0,18,54,3
26,3,0,-2,-3,-3,-27,-71,3
1,2,10,3,-1,0,-5,-34,3
-3,1,-1,-3,-2,-2,1,35,3
3,0,1,-2,-1,-1,-2,11,3
-22,-3,-6,0,2,2,8,38,3
-6,-3,-6,-3,-1,-5,-9,12,3
-8,6,27,1,-3,-3,-1,65,3
6,-7,0,0,-1,-1,-4,-20,3
-16,-2,-24,-5,-2,-2,11,19,3
12,2,-6,-2,1,0,-3,-8,3
-8,1,-1,-1,1,2,11,-25,3
-2,-5,-10,-2,1,-3,-9,-61,3
-11,10,20,-2,-2,-1,-9,-32,3
-10,-2,-3,1,-1,1,12,35,3
-28,-7,-8,0,-1,0,1,-17,3
16,4,4,-1,0,0,-2,15,3
56,1,3,3,2,4,-6,-23,3
-16,-2,4,-1,-1,0,3,-25,3
-45,-8,-6,-1,-4,-1,15,98,3
-8,1,-5,-3,-3,-2,-4,49,3
7,-1,7,3,0,-2,-5,-23,3
8,10,2,0,1,1,4,10,3
15,-5,-18,-4,2,0,-3,-11,3
-11,-2,0,-2,1,0,-4,-33,3
-29,-7,0,-3,-1,-4,3,21,3
30,2,-6,-1,0,0,3,47,3
-18,-1,-2,-3,-1,-1,0,-29,3
1,1,9,0,-1,-2,-8,-35,3
-16,3,3,0,-2,4,3,-5,3
-25,-6,-5,0,0,-3,-7,8,3
8,-1,-8,-4,-2,-3,-7,-64,3
6,-4,-20,-3,-2,-2,-5,-39,3
-24,8,16,2,0,-1,14,88,3
-2,-17,-12,-2,-3,-1,-10,-43,3
9,1,4,3,4,2,7,-22,3
0,-2,-4,-1,0,0,5,85,3
4,4,1,1,1,-3,-1,-49,3
20,-5,8,-2,-4,-3,2,32,3
12,0,0,1,0,-1,-13,-9,3
-7,1,3,2,2,0,-1,-39,3
3,-5,1,-2,0,-2,-10,-33,3
-3,0,-1,0,-3,-2,0,24,3
23,6,2,1,1,2,5,13,3
-12,2,-3,-1,-3,-3,10,10,3
41,-5,-4,-1,0,1,5,47,3
5,6,3,0,1,4,-8,-79,3
-26,-1,-2,-2,-3,-5,-7,97,3
-9,-3,-3,1,0,2,8,1,3
6,3,8,1,-1,0,-6,-28,3
8,-1,-23,-2,-1,1,19,32,3
5,-3,3,-1,0,-1,-28,-83,3
2,16,9,0,2,2,2,10,3
6,-6,-10,0,-2,-2,-6,-13,3
1,-9,-5,-3,-3,-3,-1,22,3
8,0,-2,-1,-1,-2,-1,18,3
-5,-6,-2,-3,-3,-3,9,16,3
-12,1,-2,-1,0,-1,-4,-5,3
4,8,11,0,2,0,-6,-35,3
-2,-3,2,0,-1,-1,-3,-13,3
-4,-10,-7,1,-1,0,-13,-75,3
-1,5,2,-2,0,2,1,0,3
9,2,4,-2,0,1,12,78,3
0,1,2,2,0,1,-7,-20,3
7,-10,1,-4,-2,-5,15,88,3
-43,1,-2,-3,-2,-3,-2,-6,3
-5,1,1,0,-1,2,-5,-10,3
0,6,4,1,3,2,10,12,3
-7,-2,1,-1,-1,-1,-24,-86,3
4,-6,10,3,1,-3,4,-10,3
3,8,17,2,0,1,9,72,3
-11,-5,1,2,0,-2,-14,-86,3
0,0,2,1,0,0,3,-24,3
-24,4,-4,-4,-4,-4,-9,-33,3
-5,6,6,2,2,0,-7,-46,3
10,-13,-15,-3,-1,1,9,44,3
-4,1,6,1,-1,-1,-1,21,3
0,-5,-15,-6,-1,-1,-7,-12,3
3,8,18,3,0,-1,-4,-8,3
7,-1,-1,-2,-2,-2,3,40,3
22,4,-5,-1,1,3,2,-19,3
67,-1,-2,-1,-3,-2,3,25,3
-49,-11,-7,1,0,-2,-27,-78,3
-7,8,0,-4,-1,-3,10,3,3
10,4,-1,2,1,3,7,41,3
13,3,9,-2,-1,1,-1,-24,3
5,-3,-4,-1,0,0,-1,0,3
-9,-1,2,1,-1,-1,-5,-13,3
0,1,3,0,-1,1,3,7,3
-9,0,12,3,2,-2,6,22,3
1,-3,-18,-4,-2,-1,9,14,3
-6,-3,3,1,-1,-2,6,51,3
0,12,11,-2,0,-1,-3,10,3
-18,-9,-4,1,0,0,-5,9,3
1,0,4,-2,1,-2,-3,-34,3
11,2,2,-1,-2,1,-3,20,3
-18,-7,-7,-2,-1,-4,-8,-42,3
-7,1,2,0,-1,0,7,66,3
-7,-5,0,-1,-3,-2,4,11,3
-2,-2,-11,-2,1,1,3,-24,3
6,-3,-5,-5,-2,-4,-14,-16,3
-7,1,-1,0,0,2,15,30,3
7,0,-8,-2,-2,-3,-15,-31,3
-15,-3,11,2,-2,1,0,-36,3
5,4,-7,0,0,3,1,-6,3
-5,2,-4,2,3,2,6,-16,3
7,0,-1,-1,-1,-1,10,35,3
27,2,-2,2,-1,-2,-8,8,3
5,-1,5,0,-1,0,-5,-6,3
-9,-4,0,2,-4,-2,-14,-23,3
-11,-4,-5,-4,-3,-1,11,20,3
6,-1,-4,-2,-1,-2,-19,-35,3
12,0,-5,0,-1,1,8,-15,3
13,-5,2,-1,0,-1,7,92,3
-1,2,-29,-5,-1,1,-6,-34,3
-31,2,21,-1,-1,-4,-5,-8,3
3,0,-3,1,0,0,12,56,3
4,-1,-3,-1,0,-2,-15,-48,3
-2,-14,7,3,0,1,1,34,3
40,-2,-9,-3,-1,0,13,44,3
-10,0,-10,-3,-1,-2,-4,-7,3
6,-6,-6,-1,0,2,4,6,3
-14,3,0,-2,1,-2,1,-3,3
-2,5,-6,0,1,-2,1,37,3
-16,1,15,-1,0,0,-1,13,3
2,6,-1,-1,0,-1,-14,-64,3
18,2,6,-1,0,0,0,94,3
-8,0,-6,0,0,-1,-3,-12,3
-6,2,0,1,-1,-4,-2,-1,3
-10,-2,-4,-1,-1,1,4,11,3
16,2,7,1,1,1,0,-10,3
-7,1,9,1,-1,1,-4,-31,3
-10,-7,-27,-3,-1,-1,2,11,3
-17,-4,1,-2,-1,1,0,-21,3
6,1,7,1,0,1,-3,-16,3
9,-6,-4,-2,-3,0,13,10,3
-44,-2,19,5,2,3,-4,-20,3
29,6,-3,-3,-2,-4,2,-26,3
-4,3,-3,-2,0,1,12,-21,3
2,-4,-4,-1,-2,0,-13,-33,3
5,-3,7,-1,-2,0,18,76,3
-19,-2,-6,-2,-3,-4,-29,-73,3
-2,8,3,3,1,2,10,31,3
8,-8,5,3,0,1,7,34,3
13,-1,-20,-6,-1,-4,-3,-21,3
-4,-9,-11,-1,-2,-1,11,45,3
13,1,-1,0,0,-1,-8,-51,3
-1,0,-7,-2,-2,1,3,31,3
-4,-1,-1,-1,2,-2,-8,-23,3
-1,-1,5,-1,0,0,4,60,3
-32,-8,-3,-4,-4,-3,-7,-46,3
2,5,4,-1,-2,-2,0,-9,3
10,-3,3,-2,-1,1,2,-22,3
-1,7,1,1,1,1,-5,39,3
-55,-16,-7,-4,-5,-7,-4,31,3
-21,3,-3,-1,2,0,-2,-66,3
3,0,-6,-5,-5,0,-10,-11,3
-7,-2,-12,-4,0,2,9,-9,3
12,4,0,2,1,0,-6,-2,3
2,1,3,-1,1,-2,0,13,3
-9,-6,-11,2,0,-2,-2,-5,3
-9,-1,11,0,1,-1,0,-19,3
25,1,17,3,1,3,8,43,3
-14,2,-10,-5,0,-1,-11,-14,3
22,3,3,0,1,1,9,59,3
25,3,-7,-2,-4,-4,-4,-18,3
-2,4,4,0,3,2,10,43,3
-10,-1,-4,0,1,1,-7,-85,3
26,10,11,-1,-2,-2,-14,-44,3
-40,-4,3,1,-2,-3,-12,-32,3
-10,2,-4,-3,-2,-5,-4,-16,3
15,-10,-6,-1,0,1,9,56,3
9,5,5,1,0,0,3,-3,3
-2,7,5,0,-2,-3,0,-10,3
29,6,3,1,1,0,-1,-5,3
5,-6,-24,-2,-1,-2,6,49,3
3,-1,4,0,0,1,3,0,3
2,-5,-3,-3,1,-1,4,36,3
-1,-2,2,-1,-2,0,1,-9,3
-3,6,2,3,-1,2,10,62,3
-46,-11,4,-2,-1,-5,-16,-58,3
-8,3,-7,-2,0,-2,0,-15,3
25,4,-3,3,0,0,-3,1,3
-16,-2,1,-2,2,-1,0,39,3
-21,-7,-7,-3,-1,0,-3,-2,3
7,1,5,1,1,1,0,-3,3
-2,-5,8,1,2,1,4,15,3
-8,1,-2,-4,-4,-3,-5,-73,3
-1,1,-1,3,0,2,4,30,3
12,3,7,0,2,0,3,14,3
4,-6,-7,0,-2,-2,-4,-9,3
14,5,-5,-2,0,1,5,12,3
4,2,5,-1,1,-2,-2,28,3
-1,-1,-1,-2,-2,-2,10,41,3
-16,-1,-4,-2,-1,-2,-15,-55,3
3,1,10,3,2,-1,-8,-15,3
9,0,-5,0,0,2,-4,-20,3
3,-1,-2,0,-1,0,8,34,3
-6,1,-3,-2,0,-1,0,1,3
2,-1,3,0,-3,-1,-8,-19,3
5,1,-1,1,1,3,-9,11,3
2,-2,-2,1,0,-1,17,13,3
-8,-3,-7,-3,-4,-1,2,-6,3
11,1,3,0,2,2,14,39,3
4,-5,-2,0,-2,-1,-5,-2,3
-2,-3,-2,1,0,1,2,32,3
22,-1,-2,-4,0,-3,-14,-18,3
-4,2,4,0,0,1,7,17,3
5,7,-13,-4,0,0,-3,4,3
-12,-2,-6,-2,-3,-1,4,-54,3
18,-1,-2,-3,-1,-3,-3,-13,3
-5,-2,-1,-2,-2,-1,-7,-1,3
-5,-7,-1,-3,-1,-2,-5,-19,3
9,-2,0,1,1,3,-3,-5,3
3,5,-14,-4,-3,1,14,23,3
2,-6,2,0,-4,-5,-23,-68,3
6,-2,-1,-1,-2,-3,15,16,3
1,0,-3,-1,2,-1,-5,-1,3
-16,7,4,-5,0,2,-4,-11,3
16,9,3,1,-1,2,12,49,3
-1,1,-5,-2,0,-1,1,39,3
6,-7,-25,-6,-3,-2,5,73,3
-14,-3,0,0,-1,-4,-16,-39,3
6,2,-1,-1,0,-1,-6,-3,3
-1,-2,0,1,-2,-1,4,-2,3
-8,-4,9,2,0,0,-3,14,3
-37,-11,-3,1,0,0,0,-1,3
2,2,0,-1,-1,0,3,-1,3
-17,-5,4,2,-2,0,-13,-20,3
10,-7,-6,-3,-2,-3,5,-7,3
-2,5,3,-3,-3,-2,-1,41,3
-2,5,19,2,1,0,-5,-27,3
1,-9,5,2,-2,1,0,-13,3
5,13,13,2,1,1,-5,-30,3
5,-5,-33,-4,0,2,10,37,3
-15,-9,-5,1,0,-3,-10,-22,3
-3,3,6,-1,1,-4,-11,-69,3
-9,-2,-2,0,-3,-2,-6,-22,3
-1,0,12,3,0,2,5,33,3
-8,-4,-5,-1,-2,-1,-4,-40,3
5,6,-7,-2,0,3,16,51,3
-36,-2,6,-1,3,1,-7,1,3
13,5,7,4,3,2,2,-13,3
14,-5,-4,-5,-5,-9,-2,8,3
27,-4,-9,-1,-3,0,23,79,3
-7,4,14,2,1,0,0,28,3
-3,-7,6,2,-1,0,-9,-17,3
6,2,-6,2,1,3,4,5,3
-25,-4,-6,1,0,0,-6,-25,3
8,5,7,2,0,0,-1,-2,3
58,12,18,3,-1,0,1,-6,3
1,-9,8,0,0,-3,2,11,3
-4,-11,-31,-6,-3,-3,-10,-34,3
-45,-2,-1,-2,0,-1,0,-14,3
-5,3,11,1,0,-3,-10,-18,3
-7,1,-14,-3,-2,-2,7,9,3
4,3,15,3,1,-1,12,40,3
19,-3,-2,1,0,-1,-12,9,3
-11,-7,-14,-2,-5,-2,-12,-8,3
2,2,11,0,1,1,15,80,3
6,1,1,-2,0,-2,-26,-110,3
-7,-4,-7,-2,-2,-5,-11,-37,3
-57,-5,-6,-2,0,-2,11,44,3
-6,-1,-5,0,2,3,3,-11,3
4,7,9,0,-1,-1,2,32,3
8,-1,-6,0,-2,1,4,-7,3
7,-3,1,-1,0,0,3,-11,3
-12,2,-1,1,1,0,-11,-46,3
1,1,1,-1,0,-2,1,30,3
15,-1,0,1,0,0,2,23,3
5,0,-2,1,2,2,5,8,3
-9,-4,-4,-2,-2,-1,-10,-61,3
-21,13,7,-2,-2,0,11,54,3
27,-3,-7,-4,-3,-4,-37,-111,3
26,3,24,3,1,-1,9,42,3
-14,-1,-21,-4,0,1,8,46,3
2,-4,9,2,1,0,-3,-6,3
1,14,14,-2,0,-2,16,43,3
-18,-3,-1,-2,-1,-3,-10,-40,3
7,-6,3,-2,-4,-2,-6,45,3
-17,-4,-7,-1,0,2,8,-10,3
15,0,7,1,-1,-2,-6,-1,3
7,-4,-8,-2,-1,-3,-1,-28,3
-2,0,-4,-2,0,0,1,7,3
8,1,-10,-1,2,-1,-1,62,3
-2,-6,-7,0,-1,3,26,60,3
-16,0,-6,0,-2,-1,-19,-67,3
7,-2,-1,-1,0,-2,2,0,3
7,7,2,2,-2,2,5,24,3
-9,-6,-4,0,1,-3,-7,9,3
1,-1,-2,-4,-2,0,20,62,3
15,8,5,1,2,1,-4,1,3
-23,-4,3,-1,-1,0,-11,-60,3
21,3,29,4,1,2,3,-9,3
22,1,-26,-1,1,1,30,108,3
3,7,-19,0,-3,1,-8,-32,3
7,-5,5,-6,-2,-9,-11,0,3
-23,-3,-3,0,0,-1,-2,20,3
4,-2,4,-2,-1,2,20,55,3
8,1,7,-1,1,0,-5,-20,3
12,4,1,1,1,2,5,-10,3
5,1,-13,0,0,0,-6,-27,3
3,0,3,0,1,0,-3,-12,3
-6,-1,1,-3,-1,-2,9,35,3
1,-4,-2,-2,-3,-1,-12,-43,3
-5,-5,-5,-2,0,-1,2,1,3
-9,-2,-2,0,0,-1,-12,-44,3
1,-2,7,1,-1,-1,0,-9,3
-14,-11,-9,-1,0,-4,-5,-41,3
4,11,-7,-3,-2,-1,3,-5,3
-3,0,4,1,-1,-2,-14,-8,3
4,-2,0,1,0,0,-2,-37,3
-2,-2,0,1,2,1,11,68,3
0,-1,-5,-2,0,-1,7,-8,3
-36,-6,5,-5,-3,-5,4,9,3
13,3,-4,1,1,2,-10,-20,3
3,2,24,2,-2,-4,-4,25,3
-19,5,3,-1,0,0,-5,-23,3
12,-9,-9,0,0,2,-2,40,3
17,6,10,-2,-2,-2,0,-15,3
-8,-4,-18,-1,0,1,12,17,3
7,-5,-1,0,1,-2,-14,-82,3
-24,-3,-9,0,-2,-2,-3,11,3
-12,-4,11,0,-1,-3,-25,-30,3
35,0,-13,-4,-2,0,31,45,3
-2,-2,-4,-1,-2,-2,-11,-16,3
15,2,-5,1,0,1,-2,-5,3
-1,3,-5,0,0,0,1,23,3
-10,3,1,1,-1,1,-5,-7,3
4,-4,-7,0,-2,0,8,19,3
5,2,5,1,0,-2,-9,-62,3
-5,-7,-2,0,0,-1,8,32,3
3,0,0,-1,-1,-2,-7,-31,3
1,-3,-6,0,-1,4,11,58,3
3,0,1,-2,-3,-3,-32,-119,3
-55,-5,3,-1,0,0,27,1,3
1,7,13,3,1,0,-22,-85,3
-5,-7,-28,-4,-1,-2,-22,-35,3
6,11,21,0,-2,-5,9,18,3
-8,-4,-7,-2,-1,-1,4,-2,3
-3,2,-12,2,2,3,-3,-23,3
31,3,2,-2,3,3,11,63,3
-9,4,23,4,4,4,-4,-14,3
2,-6,0,-2,-4,-3,-9,-40,3
3,1,-3,-2,-3,-4,-2,24,3
-17,0,7,1,-2,-4,-6,-45,3
4,-2,-14,-2,1,1,10,35,3
10,2,1,-2,-1,-2,1,31,3
-4,-3,-6,-1,-1,3,0,-8,3
-3,-3,0,-5,-2,-2,2,-4,3
-3,0,-3,-4,-1,1,3,9,3
6,-3,-5,1,2,2,-2,1,3
7,0,3,-2,-3,-3,-9,-13,3
17,1,2,0,-2,-3,13,65,3
12,-6,-2,0,-1,-2,-2,0,3
19,-2,6,-1,2,1,-5,-21,3
10,12,17,7,7,6,13,31,3
-4,-3,-1,0,0,-2,-6,-48,3
4,9,2,-2,0,-2,6,-3,3
7,-18,-13,0,1,3,30,60,3
-9,2,12,0,-2,-4,-31,-36,3
-1,-1,1,1,0,1,10,48,3
0,0,-17,-2,-2,0,-6,11,3
-9,-9,-1,-4,0,-1,8,31,3
3,-1,-7,-3,1,-1,7,-9,3
-5,-4,-12,-1,-1,-1,-6,9,3
3,3,12,-1,-4,-1,-3,7,3
-7,5,2,0,-1,-1,-8,-14,3
-15,-11,-15,-3,-4,-2,-1,27,3
-6,-1,5,-1,-3,-2,3,-39,3
-6,-4,-7,1,3,0,-8,-18,3
35,13,4,4,1,0,6,52,3
-63,-6,2,-3,-3,-6,-4,-59,3
0,1,13,1,0,0,14,92,3
5,2,2,-1,-2,0,-10,-53,3
-12,3,-6,-2,-3,-3,7,16,3
12,-1,-3,-3,0,-2,-10,13,3
-14,-6,-2,1,-1,1,-8,-12,3
-11,-4,-13,-3,-2,-5,-1,16,3
4,9,8,-1,-2,3,0,-20,3
2,-14,-10,0,2,2,9,-7,3
2,10,-11,-4,-2,-2,-16,-55,3
-16,-6,1,2,1,0,12,1,3
-1,3,-5,3,-1,-3,-15,-29,3
9,1,17,-4,-1,0,4,26,3
-3,-3,2,-1,0,0,4,13,3
-3,-1,-1,-1,0,2,-1,-12,3
6,-2,-12,-1,0,-2,-4,35,3
-13,2,10,-2,-3,-3,-4,-13,3
13,0,-7,-1,1,1,6,23,3
-11,-3,-5,-3,-5,-3,-3,-1,3
-3,-1,5,0,1,-2,-4,0,3
16,1,-5,0,-1,2,3,-15,3
-17,-3,19,0,-3,-3,-18,-32,3
9,3,-5,1,1,1,5,22,3
-5,-12,-25,-4,-4,-2,23,87,3
-3,-1,-10,-3,-3,-5,-20,-35,3
-14,0,6,3,1,-1,0,21,3
3,-1,7,2,2,2,-7,-16,3
-17,7,12,0,-2,1,6,31,3
27,8,7,1,1,2,14,67,3
-66,-5,-9,-1,-2,-1,-16,-58,3
10,-7,-18,-3,-1,-1,21,75,3
14,6,6,-2,0,-2,-12,-38,3
10,-9,-8,2,0,2,12,47,3
15,7,3,-3,-2,0,-5,-14,3
-13,-5,2,-1,-2,-2,-4,-8,3
1,2,-1,3,1,0,-8,-37,3
1,0,1,-2,-3,-3,-4,-22,3
19,-7,-25,-3,0,1,10,21,3
-1,2,9,1,1,0,-8,-9,3
1,0,-13,2,0,3,8,29,3
3,3,1,-1,2,3,-15,-83,3
11,2,5,2,-1,-1,23,106,3
-2,0,6,2,1,-1,-41,-99,3
-1,-2,2,-3,-1,-2,9,-4,3
-44,-5,-3,-4,-5,-3,8,47,3
23,-3,2,1,2,2,13,65,3
17,7,-1,3,2,3,17,43,3
-24,-5,8,-3,1,-3,-42,-70,3
8,-2,-11,0,-1,0,4,47,3
3,2,11,7,2,3,3,-26,3
-29,-2,-15,-5,-3,0,-7,-11,3
11,1,5,-2,-1,-1,5,2,3
19,-3,10,-2,-1,-1,17,52,3
5,-5,-6,-1,-1,-3,-9,-32,3
11,2,8,2,-1,0,5,-8,3
-14,-1,-1,1,-2,-1,0,-1,3
0,4,-3,2,0,1,-20,-87,3
-1,1,23,1,-1,-2,10,16,3
1,-7,-18,-3,-3,-4,3,36,3
6,10,7,-2,-3,-1,-6,-28,3
3,3,0,1,0,0,6,49,3
3,0,-3,-1,0,-1,-14,-41,3
4,2,6,-1,-1,2,23,12,3
-28,-12,-6,-3,-3,-3,-22,-6,3
7,-5,5,4,1,3,0,-28,3
4,-2,-22,-4,0,-2,-12,-12,3
-8,-1,1,1,1,0,10,22,3
-4,-5,1,1,0,-1,5,63,3
8,0,-1,-2,-2,-4,-13,-48,3
-6,-3,1,-2,2,2,3,-36,3
10,-3,0,-4,-1,-5,-26,-80,3
23,6,5,-1,0,0,-1,-10,3
-38,1,3,1,1,0,1,2,3
3,3,6,-2,-2,-4,0,36,3
9,-3,-4,0,-1,-2,2,13,3
-12,-2,6,0,-1,1,2,-20,3
8,7,20,3,0,1,6,20,3
2,3,-15,-2,-1,1,2,-15,3
-3,-6,-4,1,-1,-2,-3,22,3
1,4,16,2,-2,-1,7,18,3
13,-2,-6,-1,0,0,4,7,3
2,1,2,4,1,3,-6,-4,3
-56,-5,27,0,-3,-6,-9,-52,3
13,7,-11,1,3,5,-9,-39,3
11,-2,-10,-2,-2,-3,8,80,3
-34,-4,-1,-3,-3,-4,-9,-27,3
10,1,-6,-1,-2,-1,-2,38,3
2,4,0,1,-1,0,14,28,3
-23,1,8,-2,0,-3,-18,-44,3
5,-8,-9,-2,0,-1,-2,16,3
12,1,5,-1,0,0,14,47,3
1,-7,-5,-1,-2,0,1,16,3
28,1,-12,-1,-1,-2,-1,55,3
9,-1,3,-1,-1,0,2,-8,3
3,8,-8,0,1,1,0,-14,3
34,-1,-21,-5,-2,1,6,35,3
-9,5,13,-2,-2,0,0,-28,3
-10,-2,2,-1,0,1,7,11,3
1,2,2,0,0,-3,-20,-75,3
1,-1,0,1,-2,-3,13,30,3
-11,-4,-13,-5,0,-1,4,-20,3
13,3,1,0,-2,-2,-2,1,3
9,2,1,-2,2,2,-7,19,3
-21,-6,-4,0,0,-2,2,3,3
3,-1,-6,-3,0,2,2,10,3
3,-4,-8,-2,-3,0,11,74,3
-34,-2,-6,-2,-2,-2,-15,-77,3
11,-1,-3,2,2,1,12,31,3
22,-6,-6,-3,-4,-8,-14,-24,3
-16,1,4,-1,1,2,-4,-14,3
11,3,5,3,0,4,15,63,3
-6,1,4,-1,0,1,0,15,3
-8,0,-2,-1,-2,-3,5,-21,3
3,-10,-5,-1,-2,-4,-12,-20,3
17,8,-8,-1,-1,2,8,41,3
-29,-9,-1,-2,-1,-4,-4,-1,3
6,3,13,4,3,-2,-4,-36,3
8,1,-7,1,-2,0,3,4,3
-26,-10,2,-3,1,1,0,-65,3
34,4,-5,2,1,2,10,78,3
-26,0,12,-2,-2,1,-5,9,3
16,5,2,0,-2,-4,-8,-52,3
11,1,1,1,0,3,5,22,3
19,0,11,0,-1,-4,-23,-105,3
-4,-5,-28,-5,-2,1,20,63,3
-14,0,2,-1,-1,-3,-12,-78,3
14,-1,-2,0,-1,-1,13,106,3
-11,-1,0,-1,1,0,-5,-52,3
-1,0,-4,2,1,3,7,29,3
12,4,1,-2,0,-1,2,7,3
-3,-4,-11,-2,-2,-4,5,-18,3
-16,1,1,-2,-1,-3,-8,-34,3
19,1,1,3,1,3,-7,-3,3
3,3,-5,-1,-2,-1,-5,-43,3
7,-3,7,0,0,-2,15,92,3
-5,-3,-1,-5,-1,-2,-9,-26,3
15,0,6,2,0,3,8,0,3
-3,-5,-17,-4,-1,1,-5,14,3
22,12,-15,-4,-1,2,5,27,3
4,-6,-12,-2,-4,-3,-13,-34,3
-13,2,5,1,2,2,7,29,3
-9,-2,5,-1,-3,-4,-3,5,3
4,-4,1,1,1,0,-10,-43,3
18,7,16,2,3,2,8,32,3
-54,-5,-8,-3,-2,-2,-8,-54,3
12,-4,4,1,2,3,6,1,3
-12,-7,-2,-1,-2,-2,-5,6,3
-5,1,8,0,0,2,3,8,3
-11,-4,-3,-2,-1,-1,2,16,3
-18,-1,4,-4,-4,-6,-2,-3,3
5,0,-1,2,-1,1,1,13,3
-22,-3,-10,-1,-2,-5,-5,-11,3
27,-1,-3,2,1,1,7,34,3
12,2,-3,-2,3,2,5,97,3
13,-3,3,-1,-3,-3,-5,-54,3
-52,-2,-4,0,0,3,3,-32,3
46,1,-4,0,-2,-4,-25,-115,3
-7,3,10,3,1,3,13,15,3
3,-4,11,3,-1,-2,1,28,3
-1,4,-40,-10,-4,-3,-3,-17,3
1,-2,-2,-1,-1,0,-2,-16,3
-4,-1,0,0,0,1,4,-2,3
-14,2,2,-3,-2,0,-14,-62,3
3,-6,19,2,-1,0,14,39,3
4,-2,-36,-6,0,2,1,40,3
-11,0,4,0,-1,-3,-6,-32,3
-12,-1,8,0,-3,-1,-7,-12,3
2,-2,6,0,-1,-2,-6,-16,3
-2,1,2,1,1,2,-4,-36,3
5,-1,5,3,-2,-1,16,88,3
24,4,-4,-4,1,0,2,-30,3
26,-7,-8,0,-1,-1,4,42,3
-16,3,13,4,3,2,-4,-13,3
-7,-2,-6,-1,-2,-1,7,18,3
-9,3,3,-2,-2,-2,11,45,3
21,3,-6,1,-1,1,-24,-54,3
-12,-4,-1,-2,-2,-8,-4,84,3
10,6,18,1,3,5,11,66,3
-11,-4,-14,0,-1,-2,-13,-28,3
-8,1,12,2,1,1,10,13,3
2,-1,-1,-2,-1,1,4,-14,3
-11,-1,2,6,1,-4,-15,-52,3
7,-1,1,-6,0,1,3,17,3
-15,-2,-2,-1,0,-1,2,-9,3
-9,4,13,0,-1,-4,-2,-9,3
34,5,5,4,2,0,-1,-27,3
-77,-20,-20,-11,-5,-3,-8,-58,3
22,3,3,2,2,3,-10,-16,3
16,0,-5,-2,-5,-4,15,74,3
0,-4,4,-3,-2,-2,-21,-18,3
18,12,1,1,-2,-3,3,76,3
-24,-8,-2,-4,-1,-3,1,15,3
-7,3,8,1,1,1,-2,-19,3
-15,-4,-16,-5,-2,0,5,-15,3
7,4,11,2,1,0,-3,1,3
-2,6,12,3,1,0,1,-3,3
7,2,-10,-4,-1,1,4,42,3
-17,-4,-6,-3,-3,-5,-15,-114,3
38,0,0,2,1,3,19,79,3
45,10,18,5,1,-1,-6,-8,3
2,-4,-8,-3,-1,4,0,-16,3
2,0,-5,-3,-2,0,-4,6,3
-36,-3,13,2,-2,-2,1,26,3
16,-4,-34,1,2,5,13,-2,3
-3,0,-3,-4,-2,-6,-13,-33,3
10,2,-1,-2,1,-2,-6,-10,3
5,4,5,4,3,1,19,37,3
-31,-5,-3,-2,-1,-2,-13,-41,3
-8,-6,-3,0,-2,-2,-21,-80,3
-7,7,11,1,1,4,5,15,3
8,-9,-11,2,1,0,3,11,3
-8,0,2,-2,1,-1,1,35,3
-2,-2,3,2,0,1,4,6,3
4,1,0,-3,0,0,4,22,3
-5,-6,-13,-2,-2,-5,-20,-87,3
-6,-3,-3,-2,-3,-2,3,16,3
-4,2,5,1,1,1,8,25,3
-2,-1,11,4,1,1,4,8,3
11,4,-11,0,1,1,-4,-26,3
-16,3,7,-4,-5,-2,-4,10,3
8,-1,3,3,1,5,20,39,3
-6,-8,-6,-3,-2,-5,-11,-11,3
65,0,6,3,-2,-1,7,38,3
-15,4,37,3,-1,0,3,-14,3
-62,6,-5,2,5,2,-15,-51,3
65,-17,-21,-4,-5,0,4,33,3
-66,-5,8,-2,-2,-3,-8,31,3
-11,-6,-9,-5,-2,-5,-22,-45,3
25,-3,-1,-5,-4,-4,12,120,3
-3,6,-3,1,0,1,8,6,3
-6,2,3,-2,-2,0,-6,4,3
6,-1,-4,-1,2,3,14,39,3
-19,-3,14,3,0,-1,-8,-42,3
-18,1,-19,-3,-1,-2,-1,-12,3
18,0,-1,-1,1,4,10,-14,3
-10,2,-8,-1,-3,-3,-2,-8,3
19,0,1,0,-2,-2,-5,-20,3
-7,3,6,3,0,0,3,16,3
1,0,0,-1,0,-2,-7,-37,3
-1,-2,16,2,0,-1,-4,-5,3
0,2,-9,-2,-2,-1,1,4,3
-4,-1,3,0,-1,-1,2,-9,3
13,3,1,0,-1,1,18,84,3
-4,-3,-5,-4,-1,-5,-20,-61,3
3,-3,-4,-1,-1,-2,9,80,3
-9,2,-1,-2,-1,-3,-7,35,3
5,3,5,0,2,1,-3,-79,3
-36,-2,-7,2,-2,1,3,18,3
8,0,3,-5,0,0,15,46,3
-5,-7,-12,0,2,0,-10,-25,3
-5,3,-2,0,-1,-4,-10,13,3
37,3,-6,-1,1,3,5,-13,3
6,-14,-34,-7,-2,-1,-8,-43,3
17,10,32,3,2,0,6,32,3
2,-10,-40,-11,-6,-5,-7,-32,3
4,1,-7,-1,-3,-2,-2,-8,3
7,1,8,5,0,2,16,35,3
21,3,1,2,0,6,-7,-30,3
10,2,3,-1,0,-4,9,42,3
-14,-2,11,1,0,-2,-1,-15,3
-9,4,3,2,0,0,-8,-67,3
-20,-1,-4,-3,-1,2,6,11,3
-20,3,5,0,2,1,-9,-39,3
-8,-7,-11,-1,0,-3,4,36,3
-8,4,11,3,1,0,-4,-24,3
6,-1,-7,-2,-2,-3,-1,-3,3
-7,4,15,3,2,3,6,38,3
-10,2,-2,0,0,3,0,-64,3
-10,-6,-3,-4,-4,-8,-32,5,3
-41,4,-7,-5,-3,-6,10,30,3
27,-4,12,2,-3,-2,-10,-80,3
4,4,-8,-1,2,5,11,13,3
0,0,-6,-1,-1,2,14,57,3
-11,-5,11,-2,-1,-3,-22,-52,3
5,4,3,1,4,2,8,75,3
11,4,2,-1,-1,0,4,24,3
13,1,4,1,-1,0,-3,-45,3
15,-3,-6,2,0,0,7,19,3
-9,-2,-6,0,-1,1,-1,-19,3
-7,-5,-3,-4,-5,-3,-8,20,3
-13,-1,-4,-4,1,-1,-5,0,3
-22,-3,-5,-4,-2,0,10,-7,3
-3,0,-2,-1,-2,-1,-7,-23,3
28,2,4,3,2,-1,3,37,3
17,5,-14,-1,1,5,4,-84,3
-77,-1,16,3,2,1,-1,37,3
43,-3,1,-2,-5,-7,-17,-25,3
56,8,14,1,1,3,26,127,3
21,-8,-6,-4,-1,-6,-18,-87,3
-19,-4,0,-2,-4,-3,18,82,3
-8,1,-9,-1,-1,0,-29,-101,3
-17,-2,-20,-2,3,5,8,46,3
1,5,13,0,-5,-7,-9,29,3
21,-6,-10,-1,0,1,-6,-17,3
-19,-3,0,0,1,1,7,29,3
4,-1,-3,-1,-1,0,7,-18,3
-13,1,9,1,1,0,-5,-24,3
23,-1,-7,-2,-1,-3,-6,-34,3
-13,-3,6,2,0,1,12,16,3
-12,-6,-5,-6,-2,-6,-16,-62,3
0,1,-5,0,0,0,7,35,3
6,0,-3,0,-1,-1,-3,-15,3
-6,0,7,0,0,2,2,-15,3
-11,-5,-4,-2,-3,-3,-5,-11,3
-13,-5,0,0,-3,0,11,66,3
38,-2,5,1,3,0,-15,-77,3
-3,9,-28,-4,1,1,3,-24,3
-7,-3,-1,-3,-5,-4,-11,48,3
-4,3,-7,2,1,3,-10,-99,3
-14,-9,-2,-6,-6,-7,-8,16,3
28,7,2,-1,-1,5,14,66,3
22,-4,-11,-5,-3,-5,-7,-53,3
5,13,24,5,3,2,8,46,3
14,-2,-4,-2,-1,-3,4,14,3
-13,-3,-10,5,3,-3,-2,-7,3
-2,-7,4,-7,-2,3,7,6,3
2,-1,-1,-4,1,2,20,51,3
-1,3,-5,-1,-2,-3,-9,41,3
-4,-2,4,0,-1,-1,11,63,3
-13,1,3,5,2,-1,-16,-42,3
-13,-2,-3,-1,0,0,5,26,3
9,6,-2,-2,-1,1,10,-12,3
-1,-5,0,-2,-2,-3,-11,-33,3
-30,-5,6,2,1,0,-4,-50,3
-2,-11,5,-4,-5,-6,-16,41,3
-3,6,-35,-2,-3,0,8,-11,3
-17,-2,6,-2,-2,-2,-3,-26,3
11,5,14,3,-1,0,5,29,3
16,2,3,3,4,6,14,12,3
-9,-1,7,0,-1,-5,-19,0,3
7,-2,1,-1,1,1,11,43,3
-23,-4,-10,4,0,-7,-21,-55,3
10,2,-2,-9,-2,4,4,-7,3
11,3,8,2,4,5,12,48,3
-14,-3,-3,-4,-2,-1,-6,1,3
10,4,2,1,0,1,12,41,3
-11,-2,-6,0,0,-4,-11,-23,3
-2,-1,0,-1,0,-2,-5,-51,3
-3,0,1,0,1,-2,1,12,3
-1,1,3,11,19,2,-36,-66,3
-2,-6,-6,-6,-15,-2,50,28,3
-1,1,0,-2,-6,0,2,42,3
-13,-6,-5,-3,-6,2,-8,-47,3
14,4,-4,-3,-4,0,10,43,3
37,5,5,7,9,1,-23,-46,3
30,4,6,2,4,3,6,-24,3
-71,-7,-3,-5,-4,-6,-6,-34,3
9,0,-4,-6,-4,1,18,55,3
-21,-3,0,0,0,0,-21,-63,3
-4,3,2,0,0,-1,-1,3,3
31,2,2,1,1,0,0,-17,3
-14,-3,-3,-4,-5,-1,-2,-10,3
-9,-3,-2,6,3,-2,18,63,3
3,-1,2,-3,-2,0,-3,-32,3
-2,0,-1,0,-1,-1,-12,14,3
-4,0,0,-3,-6,-1,19,54,3
-5,0,-3,-2,-2,-3,-34,-95,3
-5,-5,-1,1,2,1,2,28,3
6,1,3,0,2,2,-1,-13,3
-18,-1,-1,-2,-4,-4,13,-15,3
-34,1,-5,-1,-2,-1,-7,11,3
-16,-3,-2,1,1,-1,1,-43,3
13,-1,-2,-2,-2,0,-4,24,3
14,3,1,2,1,3,-5,-20,3
-5,-2,12,0,-1,-3,9,88,3
-13,-1,15,4,1,-1,8,11,3
-1,-3,-26,-6,-2,-5,-6,1,3
1,2,-2,-4,-2,-2,6,-15,3
-5,0,-1,-1,-1,-1,-10,-40,3
8,2,8,4,0,3,6,30,3
11,-2,7,0,9,2,-20,-79,3
-4,-4,-4,1,-5,-2,17,63,3
9,-1,-4,1,-3,2,1,8,3
-1,-2,-3,-3,3,-2,-4,-16,3
-11,3,4,0,-3,-1,6,24,3
-1,0,-2,-1,1,-1,-5,-12,3
57,-13,-11,-2,-3,0,-5,-5,3
9,1,-5,-2,-3,-3,-13,-90,3
19,1,3,0,-2,3,13,70,3
35,2,5,0,-1,1,21,103,3
-46,-8,-8,-6,-5,-9,-43,-38,3
-23,-2,-8,-3,-2,-3,24,120,3
22,5,5,3,1,2,4,14,3
-23,-5,-3,-4,-2,-2,7,3,3
12,4,-2,-1,1,3,-8,-36,3
4,-1,0,2,4,3,-2,37,3
-27,-3,-1,-2,-5,-7,-11,-67,3
-6,1,-1,2,2,0,-16,-51,3
11,3,0,0,-1,3,14,27,3
12,1,14,1,-1,-5,-8,-10,3
-13,-6,-49,-7,-3,0,13,42,3
-7,6,4,-3,-1,-3,-19,-18,3
-41,4,13,-1,0,-7,12,8,3
13,-7,-9,-1,1,5,-6,-67,3
12,-3,15,1,-1,-3,14,-8,3
-47,-7,-3,1,0,-2,-24,-39,3
-5,1,-10,-3,-1,-2,-3,-1,3
-2,3,6,0,-3,-1,1,-22,3
20,0,10,3,2,2,-3,41,3
8,-1,12,3,1,3,8,10,3
-6,-17,-22,-6,-4,-3,-1,0,3
16,0,-18,-4,0,2,-3,21,3
7,4,5,-1,3,-2,5,32,3
-46,-7,1,-4,-3,-4,-10,-34,3
89,16,10,5,6,6,16,20,3
-67,-13,-6,-4,-5,-3,-9,0,3
-17,-2,5,1,-1,-1,-4,48,3
4,-5,-7,-1,1,-4,2,0,3
9,3,3,-3,-1,-1,0,23,3
13,2,-7,-2,-1,0,3,-15,3
-3,1,13,2,0,0,-3,-26,3
14,-5,-4,0,1,5,3,22,3
-5,4,2,3,-1,0,1,7,3
6,0,-1,0,-1,-2,-4,8,3
-26,-5,-1,2,-1,-2,-5,-36,3
15,1,4,0,1,0,-4,-22,3
-19,-5,-11,-5,-3,-3,0,7,3
17,7,-9,3,7,9,33,52,3
-49,1,3,-5,-6,-7,-30,-28,3
0,9,-7,-5,-2,-1,4,11,3
-7,-5,6,1,-1,-2,1,-21,3
11,8,8,3,2,5,25,53,3
20,-2,-6,-1,3,6,-2,-9,3
-8,-2,-1,-2,-3,-4,10,40,3
-15,0,3,-1,-3,-2,-14,-61,3
-33,-5,-3,-3,-2,-2,-4,-39,3
35,4,5,2,2,3,16,23,3
11,1,0,1,0,2,-5,-2,3
4,-1,1,1,3,1,2,5,3
14,0,3,-1,-3,-3,-7,5,3
-10,-4,3,-6,-1,-3,-5,-34,3
16,-2,-2,0,-1,0,0,3,3
-3,-5,-3,2,-1,0,2,34,3
-13,-7,-12,-9,-4,-5,-28,-58,3
0,0,-2,-1,-1,2,8,44,3
7,0,-2,-1,-2,-5,2,10,3
-24,1,28,8,5,2,-4,-24,3
-15,1,-1,0,0,-2,-12,4,3
78,5,-9,2,-1,2,11,1,3
18,-1,1,-3,0,1,13,24,3
-43,5,13,-2,-4,-1,2,-43,3
-7,0,2,0,-2,-4,-23,-33,3
-2,2,-12,-3,-2,-2,7,30,3
-4,-5,-6,1,0,-1,5,35,3
2,-1,-13,-3,-2,-1,1,0,3
-39,-5,3,0,-1,-2,11,28,3
30,6,2,-1,-2,0,0,16,3
6,1,1,3,3,2,-20,-65,3
0,-3,-8,-1,2,3,15,51,3
4,1,-4,0,-1,-5,-29,-77,3
33,-1,24,2,2,0,25,86,3
-22,-10,-4,-7,-5,-4,-25,-111,3
21,6,-31,-3,0,0,23,127,3
13,-5,15,1,-2,-4,-21,-84,3
-19,-5,-7,2,2,-2,1,-12,3
3,4,19,0,-1,-2,6,3,3
1,-4,-5,-1,0,1,-7,-23,3
21,3,5,2,-1,2,14,46,3
-37,-3,-2,-4,-4,-3,-10,-28,3
1,-3,-18,-4,1,-1,0,32,3
2,0,2,-2,-3,-4,-12,-18,3
11,2,-2,-1,1,2,8,3,3
-17,-5,0,1,-2,-1,-5,-26,3
17,2,-3,4,2,2,-6,-61,3
28,0,2,-3,-2,-1,-7,28,3
-53,0,-1,-3,-1,-4,27,66,3
-57,-13,1,0,-2,-2,-8,-11,3
4,-4,-19,-4,-2,2,-8,-18,3
30,4,7,0,1,1,7,22,3
35,5,0,0,0,-1,-6,3,3
-10,-3,-4,0,0,-1,17,58,3
-4,5,9,4,-2,-3,-6,-9,3
-10,-1,21,-4,0,1,-11,-89,3
-22,-7,-9,-4,-5,-6,-17,49,3
8,-3,-3,1,0,-1,-2,4,3
16,5,13,-3,-2,-1,3,14,3
7,1,-12,1,1,2,2,2,3
10,-3,1,0,1,4,-2,-14,3
6,3,3,-2,1,0,1,-6,3
-9,0,-5,1,-1,1,3,9,3
-15,0,-3,2,-2,-3,-1,11,3
20,4,6,1,1,1,8,7,3
-18,-1,-3,0,0,-1,-11,-30,3
6,6,16,2,3,-2,4,-10,3
-53,-6,-10,2,-1,-3,-6,-8,3
29,10,-7,-2,-1,2,16,77,3
9,-3,-3,-4,-2,-5,-26,-120,3
12,3,9,-1,1,-3,-9,23,3
-17,1,9,2,1,-1,16,18,3
56,3,-1,0,0,0,6,-2,3
-13,1,-13,2,2,5,7,34,3
-18,7,17,-2,-6,0,5,27,3
14,-8,-16,-2,-2,-6,-11,-14,3
2,-1,-3,-4,2,5,9,6,3
4,2,4,-1,1,-2,3,21,3
-5,-4,-10,1,2,2,-7,-27,3
11,-1,-3,2,-2,-1,5,36,3
-26,-2,6,1,-1,-2,-15,-73,3
6,5,8,1,0,0,4,32,3
-26,-6,-16,-3,0,-1,9,32,3
39,2,17,0,-2,3,1,1,3
-30,0,18,4,0,-2,1,-15,3
12,-1,-18,-6,1,-4,-16,-2,3
32,1,-7,-1,1,2,21,42,3
-46,-7,-5,-4,-2,-2,-4,-17,3
-13,3,15,-1,-4,-4,-3,-7,3
19,2,9,1,-1,1,3,24,3
0,4,-11,-2,0,-1,-2,7,3
4,3,-3,-1,2,2,10,49,3
4,-5,-13,-1,-2,-2,-7,-18,3
-18,-3,-2,-1,0,-1,-8,-39,3
-10,-2,-11,-6,-2,0,3,21,3
13,-3,-9,-2,-2,0,-3,-57,3
-2,0,-1,-4,-1,-1,-5,19,3
-7,-1,8,2,-2,-1,2,-20,3
-1,-3,2,1,2,3,-1,-12,3
-20,-5,-6,-1,0,-2,-11,-28,3
-2,-5,-10,-2,-1,-5,-14,-44,3
-32,-1,15,1,0,2,32,63,3
0,-2,-7,1,-1,-3,-21,-13,3
0,4,3,0,-1,1,-11,-30,3
1,-5,-9,1,-2,1,17,63,3
8,0,23,3,-2,2,1,-2,3
-20,-6,-13,1,-1,-3,3,-40,3
2,-1,3,-3,-1,-4,-5,55,3
18,0,-2,3,0,3,7,42,3
6,-3,-10,-3,-2,-3,-18,-49,3
7,-2,7,2,0,-1,5,29,3
-49,-5,-2,-1,-4,-2,-17,-62,3
-52,-4,-6,-1,2,1,8,13,3
-5,-8,-3,-1,-3,-6,-10,-9,3
60,-1,-18,-4,-3,-2,-10,-6,3
29,8,30,1,1,1,5,-4,3
9,2,0,-2,-3,-2,3,30,3
-11,3,-3,0,-1,1,-1,-23,3
-14,0,3,0,1,0,7,24,3
17,2,-12,-1,0,1,2,13,3
20,-1,0,0,1,-1,8,27,3
6,0,-8,-3,-1,-1,-17,-29,3
-3,0,9,1,-1,-4,16,35,3
24,4,11,-1,1,9,0,12,3
-29,-4,-22,-6,-5,-8,-12,-68,3
17,-4,-19,-5,-2,1,-3,49,3
-26,-6,-3,-4,-2,-4,1,-40,3
4,8,4,2,3,0,21,66,3
5,-11,-3,-1,-1,0,-19,-91,3
9,3,4,0,1,0,5,-7,3
-3,-1,5,0,-1,0,-12,4,3
7,-1,-9,-2,-2,-4,5,28,3
13,2,6,-3,2,1,-4,-3,3
-1,0,-1,2,0,2,7,-11,3
4,1,6,-2,0,7,3,6,3
-15,-6,-10,-4,-4,-10,-2,-54,3
-30,-8,-5,-1,0,6,-8,-25,3
78,7,-9,-2,-1,1,6,35,3
-62,3,17,-4,-3,-5,-19,-73,3
14,2,-2,3,1,1,8,58,3
12,1,1,-1,-2,-1,6,6,3
-17,-2,3,-2,-1,-4,-14,-92,3
14,0,15,4,-2,-2,-5,-49,3
-2,-3,-35,-5,-1,1,-5,-6,3
6,11,24,4,1,1,-7,17,3
-15,-5,0,-1,-1,1,20,49,3
1,-1,-5,2,1,-1,0,27,3
-26,-6,6,-4,-2,-2,0,-7,3
21,3,-3,2,1,2,2,18,3
-13,0,-5,0,0,2,-7,-22,3
-5,-4,-7,-3,-2,-3,0,8,3
10,2,4,0,-1,-1,-1,0,3
0,-4,-8,-4,-1,-3,-4,0,3
-13,-1,5,-1,-2,-2,-3,4,3
4,-3,-10,-3,3,1,5,25,3
2,-3,-2,2,2,5,6,1,3
31,0,2,2,-3,-9,-21,-64,3
61,9,2,2,1,5,6,22,3
30,-2,1,-2,-3,-1,-5,86,3
23,-5,-3,1,1,1,-7,-78,3
7,3,-22,-7,-3,-3,22,6,3
-49,3,7,-1,0,-5,1,91,3
-14,-17,-29,-8,-7,-10,-29,-83,3
-3,2,2,3,2,0,-16,-26,3
-15,6,10,2,1,1,5,43,3
-7,3,-8,-1,1,0,7,-8,3
-7,6,7,3,1,3,-3,-15,3
-26,-7,-7,-1,-2,-4,1,18,3
3,-4,-13,-5,0,2,-7,-28,3
-7,-2,0,-6,-1,-1,-1,-26,3
4,1,6,1,0,1,7,17,3
20,7,4,-1,-1,-1,-1,-4,3
-5,-6,-1,3,0,1,5,30,3
-8,-1,1,-2,-2,-1,-3,-18,3
-13,1,0,2,-1,-1,4,5,3
-7,-9,-4,-4,1,4,8,31,3
-18,-1,5,2,2,0,-4,-19,3
43,0,-12,1,0,-2,-2,-19,3
-24,1,9,4,3,5,15,38,3
-7,7,-19,-10,-9,-10,-19,-41,3
4,4,5,0,1,1,16,53,3
13,2,12,2,-1,-2,-10,-4,3
15,1,-6,-3,2,-1,23,100,3
-13,3,16,1,-1,-2,6,-19,3
-11,-3,3,-1,-3,-3,-20,-40,3
-22,-5,-8,0,2,1,4,5,3
35,4,2,0,0,1,-9,-36,3
-14,-3,7,3,0,1,7,63,3
8,-1,-5,0,4,0,0,2,3
-25,-5,0,-1,-3,-1,-9,-49,3
7,1,-1,0,0,-4,-1,23,3
13,-7,-2,-2,2,2,-13,-72,3
40,2,-1,-1,-1,-3,0,17,3
-14,-3,13,2,-2,-1,4,17,3
-4,3,-3,1,1,2,-21,-72,3
21,3,22,1,1,0,36,127,3
-21,-1,-8,-2,-6,-5,-24,-27,3
-14,-1,17,0,-2,-2,14,2,3
12,-5,-19,-2,-2,3,13,78,3
-1,7,13,2,-1,-3,-14,-67,3
-4,-3,9,0,-2,0,2,58,3
2,-8,-22,-5,-2,-2,0,98,3
-17,0,4,2,2,2,0,-30,3
29,-1,-9,0,1,-1,-9,-2,3
-5,0,4,3,2,2,15,-4,3
9,6,-6,-3,1,-2,-9,-42,3
-34,-8,-1,-1,-3,0,-2,-46,3
7,0,-6,1,1,3,1,1,3
-4,-5,-15,-5,-2,-2,-2,-4,3
-7,-4,-4,0,1,2,3,11,3
10,2,1,-4,-3,-5,-7,-54,3
-6,-1,-3,0,-2,-2,-5,5,3
-14,-1,1,1,-1,2,9,32,3
-1,-5,9,2,0,0,-8,-13,3
10,3,-12,1,4,3,19,83,3
-17,-4,-12,-6,-4,-4,-34,-99,3
-17,-5,0,-4,-2,-5,-9,68,3
-10,3,3,2,-1,-2,1,55,3
-30,-5,4,0,-4,-1,2,-48,3
42,-1,1,1,1,2,15,49,3
36,7,2,-1,0,3,-5,-24,3
-57,-6,11,1,-2,-1,-2,-20,3
35,-3,-3,0,0,3,13,70,3
-3,9,2,2,2,2,14,17,3
16,-5,-14,-1,-1,-3,-7,-73,3
0,-1,0,-5,-7,-9,-6,-4,3
11,-6,-14,1,1,3,0,-10,3
-23,-2,5,-3,-4,-4,1,32,3
-10,-5,5,3,2,1,10,53,3
6,2,-1,-1,1,2,1,-29,3
-5,3,-2,-5,-3,-3,-12,-32,3
-5,-4,-6,-2,1,-2,-7,-34,3
-9,5,5,0,-2,0,6,-7,3
18,0,-10,1,-1,-1,-3,-7,3
-3,1,4,-3,-1,-2,-5,-17,3
-11,0,-1,3,-1,-2,2,10,3
1,-1,7,-1,4,0,5,-6,3
3,2,-6,0,-2,1,12,37,3
-3,2,9,2,-2,-2,-9,-12,3
-14,-1,1,0,-1,1,-4,-6,3
3,-1,-5,2,-2,-1,-3,7,3
9,-2,-6,-2,2,0,0,-25,3
23,3,6,0,1,-2,-2,68,3
-2,-9,-7,-3,-4,-4,0,-6,3
-17,-2,1,0,-2,-2,-13,-19,3
33,3,-2,-3,1,0,7,15,3
-8,0,19,1,-1,3,9,9,3
3,-1,-9,-6,0,-5,-21,-54,3
27,8,-6,1,0,2,9,24,3
-1,0,3,1,-3,-5,-24,-39,3
2,0,-3,-1,1,1,20,29,3
3,0,10,1,0,2,8,21,3
-24,-6,-2,-3,0,-4,-10,-92,3
-2,6,-11,-1,0,2,-2,-5,3
-6,-3,20,2,-1,-3,-4,-7,3
-14,-2,6,-3,-2,0,3,14,3
-4,1,-2,0,1,-1,-5,-7,3
-5,-2,-1,6,1,-1,3,9,3
-3,3,-4,-2,-1,-1,-10,-34,3
3,1,-1,0,2,1,-1,-3,3
-4,-2,3,-2,-2,1,6,17,3
10,0,1,-2,-1,1,2,-11,3
21,0,-9,-2,1,1,-3,-4,3
-33,-5,-1,0,-1,-1,-2,18,3
14,1,15,5,2,3,15,32,3
-11,-3,2,-4,-1,0,-3,-42,3
-13,-6,-28,-4,-2,-6,-18,-71,3
5,2,-1,0,-2,-1,9,100,3
16,6,8,0,1,4,19,44,3
0,-4,-2,-1,-1,0,0,17,3
-5,0,22,2,-1,1,22,102,3
7,0,-12,1,-1,1,-18,-78,3
-8,-2,-6,4,15,-11,-8,-13,3
10,3,1,1,-12,7,13,52,3
-13,-1,-1,3,6,-2,-11,-65,3
3,-1,-3,-4,-8,3,7,28,3
1,0,1,1,-2,-2,-5,-1,3
-11,-2,1,-1,2,-2,-9,-33,3
-9,-1,-1,-1,-2,-6,-11,-15,3
-13,-1,4,6,8,-2,5,-1,3
-10,-1,-7,-5,-4,1,-9,-28,3
6,-1,-4,-1,2,-3,-5,-18,3
4,0,-4,-1,-3,5,2,-5,3
32,1,-2,-1,2,-3,2,16,3
-15,-6,-2,-3,-5,-2,-4,-29,3
-7,-3,-3,-3,-2,-2,-2,13,3
-3,-2,-1,0,3,2,16,48,3
18,-1,-1,-3,-4,1,2,84,3
-2,3,3,2,2,7,-17,-36,3
-7,-1,-4,-3,-1,-8,25,28,3
5,0,-2,0,-3,0,2,4,3
-3,3,1,-1,1,1,10,12,3
6,-1,-3,-2,-3,1,0,8,3
-3,1,-1,-1,4,1,-9,-19,3
-13,-1,0,-1,-1,1,-2,-16,3
7,2,1,-2,-1,-2,-7,-36,3
-4,-4,-5,-3,-3,1,11,40,3
-1,1,-2,0,1,3,1,-9,3
-5,1,-1,-4,-2,-7,-26,-109,3
-14,0,1,1,1,1,-6,-20,3
13,-1,0,0,1,2,4,24,3
-47,-6,-5,-4,-2,-7,-3,4,3
4,2,-4,-3,-3,-1,0,7,3
-10,1,-1,3,1,1,6,-7,3
-3,-3,-5,-7,-2,-3,-7,-25,3
19,3,3,-1,0,4,-1,36,3
0,-2,-2,1,0,0,-4,-1,3
-8,-1,-3,-2,-3,-2,-4,-26,3
-5,3,3,1,-1,-3,4,12,3
16,-2,-2,1,2,3,1,7,3
6,-2,-3,-3,-1,-1,-4,3,3
3,-2,-1,-1,0,0,7,7,3
-2,-1,-1,-1,-3,0,-5,-58,3
13,4,7,1,2,-1,6,50,3
45,-4,-34,-7,-4,-4,-27,-25,3
-30,-1,6,4,2,2,11,36,3
-5,-9,-8,-2,-1,1,12,52,3
16,-1,-2,-2,0,0,14,54,3
-2,-1,4,-1,-4,-7,-4,28,3
7,1,3,0,2,1,-6,3,3
8,1,0,2,-2,4,7,17,3
7,-5,3,0,-3,0,-19,-39,3
-39,0,4,0,1,5,35,66,3
16,-3,-4,-2,-2,-2,-3,2,3
-6,5,1,-1,-3,-4,4,33,3
-8,-1,0,0,-1,0,-14,-101,3
-5,1,7,0,-2,-2,2,28,3
9,-2,-5,1,1,-4,-16,-28,3
-4,0,0,-9,-8,-4,6,-29,3
-3,5,4,4,2,2,-9,-9,3
-2,0,4,2,1,0,3,13,3
-62,0,-1,-3,2,5,19,48,3
8,-1,-7,-2,-1,-7,-30,-97,3
33,2,-4,-2,-1,1,17,30,3
-81,-3,2,0,1,0,-11,40,3
3,-6,6,-2,-5,-8,7,-26,3
11,2,-1,-1,2,-3,0,56,3
22,3,-2,-2,0,-1,3,9,3
17,2,1,4,2,3,15,47,3
14,3,-1,-1,-2,1,-7,-80,3
-13,1,2,-2,0,-1,1,37,3
-16,-7,-10,2,1,-2,-3,-12,3
22,3,22,6,4,4,0,-26,3
-4,-9,-21,-6,-4,-4,-12,-3,3
-29,-2,-14,1,1,5,13,15,3
-17,-5,3,1,0,4,0,17,3
14,2,25,3,-2,-1,-1,-28,3
8,-3,-27,-8,-1,-1,-1,-1,3
-3,-3,-13,0,-1,-2,-5,-33,3
-15,-1,16,-3,-1,-3,-16,-31,3
9,-1,-15,-3,-3,0,-5,-31,3
23,4,14,6,2,0,12,84,3
-15,-4,-3,0,-1,-1,20,68,3
-5,1,-2,0,-2,-6,-47,-128,3
19,0,-3,1,0,1,11,44,3
24,5,4,-1,-1,1,-1,83,3
-19,-5,4,-3,-5,-8,-13,-55,3
19,0,1,1,-1,-1,27,96,3
8,0,-10,-5,-4,-1,-9,-35,3
-52,-11,-1,-1,-3,-1,-7,-67,3
11,0,17,2,1,-1,-12,-43,3
5,1,-13,-1,4,4,20,27,3
-11,0,-11,-7,-2,-9,-31,-68,3
-8,-2,3,-2,-1,-2,3,-3,3
25,7,11,4,-1,1,-4,-9,3
-15,-1,-4,-2,-3,-4,0,3,3
-2,-4,10,5,4,6,17,63,3
14,5,-5,-2,1,-2,-7,-60,3
1,-4,-6,-1,1,0,-5,6,3
3,5,2,2,1,1,2,14,3
11,3,-2,0,-1,0,5,5,3
38,-2,14,5,3,3,0,28,3
-16,5,4,-3,-5,-4,-7,9,3
13,6,-1,-1,1,4,5,-9,3
-44,-12,-1,-3,-6,-8,7,10,3
4,9,-1,1,0,-3,-22,-88,3
-5,0,13,2,3,4,13,45,3
-21,1,-1,-2,-3,-3,3,39,3
22,3,5,0,1,0,5,8,3
-13,0,-4,3,0,-2,-5,-14,3
9,0,-3,2,-2,2,13,45,3
-19,-1,-4,-4,0,-3,-20,-93,3
9,0,-8,-3,1,2,2,-20,3
-11,-2,8,4,1,-3,0,8,3
4,-2,-10,-11,-7,1,-7,-20,3
6,1,4,-1,-2,-4,2,17,3
-10,0,-9,0,-1,1,-2,-22,3
-4,-1,2,-3,-2,0,0,11,3
7,1,5,4,5,1,-6,-65,3
37,2,1,1,-2,0,9,30,3
-21,-8,-20,-4,-1,-2,-1,-41,3
-2,-5,-11,-3,-4,-6,-19,2,3
18,-6,-12,0,-1,-3,-3,-26,3
9,4,31,3,-1,-1,14,59,3
2,3,-11,2,3,1,-24,-83,3
18,1,-1,1,3,3,9,45,3
-24,-7,5,-3,-3,-4,-7,-12,3
48,-9,11,5,2,1,-14,-41,3
25,19,10,1,1,0,30,115,3
-31,1,10,-3,-3,-2,4,-10,3
-3,6,-21,-4,1,3,-12,-14,3
-12,-8,-8,0,-1,-1,11,0,3
10,-1,10,3,3,4,5,13,3
-10,-7,-13,-5,-2,-4,-18,-47,3
1,5,9,1,-1,-1,6,50,3
-32,-5,-10,-1,-4,-2,-16,-35,3
-7,-3,-3,-2,-1,-2,2,24,3
-15,2,4,2,0,0,6,2,3
22,-6,-3,0,-1,1,14,40,3
-26,-3,-11,-3,-3,-1,-5,-23,3
1,-4,-3,-2,-3,-3,-12,-7,3
22,1,15,-2,-2,-1,11,-23,3
-2,-1,-6,0,-1,-5,-19,-31,3
-6,-1,-11,-3,-1,2,5,17,3
7,0,3,0,-2,-2,10,18,3
-29,-4,1,0,0,2,-16,-62,3
-33,-3,-1,-1,-1,0,-11,-76,3
16,2,-1,-1,1,-1,18,90,3
-19,-7,-5,-3,-7,-4,-9,-31,3
22,3,-5,1,2,3,24,62,3
-1,-1,1,-1,0,-2,-6,-34,3
-21,-2,7,1,3,-1,-23,-64,3
27,7,4,3,-1,3,-3,-9,3
16,2,8,2,2,3,27,99,3
-17,2,-15,-1,0,-1,-1,0,3
25,-7,2,1,0,-1,3,11,3
-1,-1,-12,-1,0,-1,-7,-19,3
-6,-6,-3,-1,-3,-1,-4,-10,3
16,3,7,4,4,3,15,61,3
-5,-1,-7,-5,-4,-3,7,18,3
-16,-2,7,0,-1,-2,-12,-53,3
-1,1,-10,-2,-3,-1,-7,-32,3
15,0,3,1,-1,2,3,72,3
-16,-1,-7,-3,-3,-3,-3,-32,3
2,0,2,0,-1,1,2,7,3
-1,5,1,-1,-1,0,-4,-40,3
-26,-3,3,-2,1,0,-2,-12,3
-39,1,2,0,2,-3,-6,-37,3
-10,-5,-2,-2,-1,-1,17,46,3
6,-6,-6,-2,0,-1,-11,-15,3
-6,2,8,5,-2,-4,-22,-48,3
-10,4,9,-4,1,1,8,12,3
14,2,-3,0,1,2,1,12,3
-35,-1,-8,-1,-1,0,-2,36,3
5,2,7,-3,-3,1,17,3,3
2,-1,1,4,-1,0,2,18,3
9,-2,5,-5,-3,-4,-12,11,3
-5,-1,3,-2,0,-1,-3,8,3
25,-6,-1,0,0,0,-2,14,3
