4,-12,-7,-8,-1,-2,1,-1,7
8,15,8,12,7,0,3,1,7
10,-1,6,4,-2,-1,-3,-6,7
7,-18,-9,-5,-4,0,-1,-2,7
2,-6,13,2,-1,2,-1,-12,7
24,102,20,1,2,2,2,-4,7
-49,-99,-34,-9,-7,-11,-11,0,7
-37,-33,3,2,2,3,45,1,7
-9,52,12,1,3,1,-42,-10,7
19,46,-14,-18,-15,-9,-21,-4,7
59,-56,-27,-13,-10,-11,-15,1,7
-104,-82,-20,-7,-7,-8,-4,3,7
12,-24,5,9,4,-3,20,17,7
-6,-11,11,11,5,-1,34,11,7
29,72,19,2,2,11,5,-1,7
48,16,2,2,2,0,-21,-1,7
1,1,4,5,2,-3,12,9,7
2,-6,0,2,2,10,-9,-11,7
-14,5,2,1,1,4,-21,-23,7
-7,14,-2,-3,-1,2,-4,-11,7
-7,13,-5,-2,-4,-7,-11,-2,7
9,-8,2,-1,-5,-7,14,21,7
41,-28,-5,-10,3,4,55,16,7
11,105,52,61,36,27,59,6,7
19,-62,-30,-48,-39,-22,-13,-18,7
-98,-128,-63,-57,-41,-38,-84,-42,7
-44,94,44,41,33,13,24,6,7
98,-47,-22,-29,-20,-13,-9,8,7
12,40,-18,-8,-8,-1,50,27,7
96,68,23,16,6,7,8,28,7
-32,-102,-46,-41,-29,-29,-59,-3,7
-34,-32,15,33,43,19,-1,7,7
30,63,22,17,-3,5,32,-10,7
-37,-68,-21,-22,-27,0,108,38,7
-38,4,0,5,-7,-23,-80,-29,7
50,46,7,-3,-2,0,66,-1,7
44,-19,-1,8,22,6,-82,-26,7
-46,24,3,20,19,-27,-48,-42,7
74,48,24,1,-4,1,-59,-6,7
-29,-34,-20,-27,-24,-9,-7,-13,7
3,9,7,-10,-19,-12,-21,-2,7
25,83,13,30,22,18,38,0,7
61,-45,-3,1,18,15,61,16,7
-88,25,5,3,-5,-11,-55,-9,7
20,-4,15,46,23,16,32,14,7
-8,63,22,16,2,12,77,35,7
-15,-41,-18,-67,-26,-14,7,40,7
-78,-5,-27,-40,-24,-6,-38,7,7
-53,-41,-21,-13,-9,-5,9,0,7
-18,-2,13,34,24,3,-34,-25,7
85,55,7,24,-2,-4,103,37,7
-13,-24,-4,-10,-7,6,83,-12,7
50,49,17,15,18,11,-103,-24,7
42,-60,-8,-2,13,28,-59,-52,7
-58,-46,-19,-13,-1,10,14,-29,7
-23,-45,-29,-7,3,-2,16,3,7
-20,62,40,23,-19,-16,127,43,7
-59,-83,-34,-53,-53,-18,-85,32,7
-16,41,5,12,10,5,50,-11,7
26,-58,-44,-40,-23,-18,-44,-13,7
5,-9,-26,-25,2,12,53,2,7
55,52,11,20,19,14,72,3,7
55,83,36,11,-5,-3,-19,-9,7
-71,-17,0,-5,-11,-18,-53,9,7
50,-104,-30,-18,-2,-1,-12,-8,7
27,-9,3,-9,18,6,-20,-6,7
-18,25,-5,24,7,10,-6,-13,7
68,95,30,36,24,7,9,-5,7
-65,-75,-18,-6,-8,1,101,37,7
34,16,-11,-1,-18,-11,-67,-18,7
-94,-82,-16,-2,17,5,-91,-59,7
-41,127,38,-15,-29,-12,8,37,7
24,2,2,3,9,-16,-43,-11,7
14,-48,-12,-10,-9,-10,-11,27,7
37,-4,-9,3,-5,-9,10,-24,7
28,31,19,31,24,6,-41,-59,7
-98,-87,-56,-41,-18,-9,2,1,7
-106,-33,20,-16,2,2,54,27,7
2,-42,-15,-13,-29,-11,-15,62,7
34,-52,2,23,2,1,17,3,7
19,46,13,15,15,16,-12,-28,7
55,1,-6,24,33,19,26,-38,7
54,96,64,40,16,14,118,60,7
50,42,-9,-44,-17,-21,-79,17,7
-85,12,6,11,11,9,-90,-78,7
-99,-29,-21,-14,-7,-22,42,53,7
-71,6,-8,-1,1,26,-96,-30,7
52,-73,7,49,40,20,111,-26,7
30,123,60,-17,-9,-3,85,47,7
-78,8,-13,3,-16,-20,20,0,7
-18,-83,-56,-64,-40,-14,67,6,7
99,-31,8,31,0,7,-4,32,7
75,35,21,29,13,8,-66,-39,7
53,19,5,-14,-1,5,21,-22,7
30,77,8,37,16,-8,15,31,7
-20,-22,-7,-49,-22,15,70,32,7
-80,-110,-29,57,33,-12,-64,-65,7
49,126,23,-52,-21,2,69,15,7
-51,-101,-12,-11,-20,-9,8,16,7
-7,18,-3,-15,12,-11,9,33,7
10,-13,-13,-18,-28,-5,127,64,7
34,0,-18,18,20,38,-99,-66,7
4,30,32,17,14,8,-7,-3,7
-113,-65,-13,-10,-14,-10,66,3,7
55,9,20,50,21,0,-112,-11,7
121,9,-3,-24,-10,-15,-3,7,7
4,-16,-7,-19,-4,7,79,2,7
-27,125,39,30,20,3,-14,-16,7
95,13,-6,-21,-2,5,11,12,7
32,53,49,48,2,-6,88,27,7
-73,-64,-35,-30,-21,-31,-86,-8,7
17,-71,-44,-22,-3,0,-57,-28,7
-15,-27,4,64,36,12,-40,-51,7
26,107,28,-19,-9,2,77,18,7
56,-58,7,-19,-11,8,-44,38,7
-47,-94,-34,-24,-36,-4,52,15,7
-88,19,-1,-39,-10,-2,-86,12,7
-2,-50,-13,38,18,-15,-54,-32,7
28,72,18,17,27,14,52,-28,7
20,11,4,19,1,1,1,4,7
-10,-4,-6,-17,-10,1,35,29,7
-27,-57,-11,-7,-6,-4,-12,-4,7
9,42,-1,13,18,2,70,-28,7
-51,-8,37,30,1,3,-112,-17,7
3,-77,-25,-28,-8,-3,127,47,7
-26,26,8,-7,-17,-23,-128,-30,7
-26,-25,-30,-1,2,6,-8,-20,7
41,85,39,15,15,-1,-11,-4,7
-22,13,4,-19,-23,-15,30,31,7
-13,26,22,24,11,10,17,20,7
-11,-75,-22,5,-2,-12,7,1,7
-46,29,-3,8,18,15,-42,-54,7
-77,-41,-11,-26,-27,-9,-9,10,7
15,-5,-3,-3,3,4,43,18,7
17,78,22,12,1,0,37,4,7
-15,-55,-23,-9,1,-4,5,1,7
71,12,1,-10,4,10,-78,-25,7
-25,-10,-6,13,2,0,-31,-6,7
4,-8,10,9,-9,-8,116,-1,7
-3,-34,-24,-44,-27,-12,-39,7,7
8,29,-4,4,9,8,-58,-15,7
1,-78,-1,46,16,-8,114,28,7
4,117,37,-26,-5,31,-128,-28,7
-9,-58,-36,-72,-27,-31,65,44,7
118,30,-12,-4,-17,10,69,0,7
-28,8,-8,-11,-1,4,-6,-22,7
-3,3,16,32,21,-3,49,26,7
-12,39,15,19,7,4,-48,-6,7
-71,-63,-14,-10,-2,-4,-20,0,7
-34,-65,-23,-18,-9,4,15,10,7
49,23,-2,4,3,2,-13,1,7
61,47,11,11,8,14,9,-6,7
-19,-6,-3,-1,0,-9,7,5,7
9,2,3,-3,4,4,36,2,7
-27,0,-3,16,12,-10,-32,-6,7
9,-13,-8,4,-20,2,-60,-28,7
-4,26,12,1,-2,-22,-29,8,7
-23,-67,-30,-32,-12,16,-21,2,7
-8,37,6,-22,-4,-21,-7,-20,7
38,-99,-36,8,16,0,97,29,7
12,60,26,-8,-26,-6,-1,29,7
-41,54,-11,-63,-33,-20,-106,0,7
-25,-72,-22,-2,-11,-4,7,-5,7
19,45,13,17,16,2,23,-11,7
33,30,12,20,24,8,27,-12,7
34,2,0,15,9,2,41,11,7
-7,-40,-19,-27,-19,-15,38,25,7
-5,25,4,6,7,28,36,-18,7
-19,-4,2,3,4,-15,-84,-32,7
-7,7,10,12,7,5,75,0,7
34,15,1,3,3,2,11,10,7
36,5,4,14,-2,-18,127,38,7
-44,-23,-11,-29,-23,16,-53,-6,7
19,-15,6,4,-7,-8,-46,1,7
-38,-64,-11,8,8,-1,-11,-11,7
50,107,27,6,8,5,0,-3,7
-47,-68,-12,11,-9,-10,49,23,7
-50,-46,-31,-7,-3,-5,-34,1,7
5,-20,-5,18,-3,13,-12,-3,7
12,38,5,-34,-4,-3,-32,12,7
-4,12,-3,-7,8,7,29,-7,7
31,-24,7,6,2,4,-5,-5,7
-4,9,-2,25,11,-1,-13,-16,7
33,7,10,6,5,-4,51,8,7
-4,14,2,-3,-8,24,-6,-4,7
-26,-34,16,15,-4,-13,13,2,7
-33,18,-16,-26,5,5,-22,0,7
38,17,20,53,11,-5,-40,-63,7
-24,-5,-17,-85,5,8,51,18,7
38,21,-28,-48,1,0,28,26,7
-39,-23,-47,-95,-27,-11,48,39,7
-9,-37,-16,-38,-5,-3,-106,2,7
16,41,55,109,20,-7,27,-63,7
49,31,14,29,-3,7,-6,-29,7
-58,-5,26,33,2,-4,6,12,7
-16,-48,-15,7,-3,-10,-5,13,7
44,46,13,20,11,3,37,-6,7
53,62,23,16,9,6,-16,-3,7
-48,-37,-17,-8,-14,-7,-71,-18,7
0,8,-7,-1,-7,-1,28,22,7
-3,-3,-9,-10,4,-9,-41,13,7
-21,13,11,8,4,7,93,-5,7
39,23,18,7,7,12,7,-1,7
-26,-34,-12,-6,-15,-12,-28,5,7
-10,7,-6,-17,-6,0,21,12,7
-12,-26,-9,4,0,2,47,-1,7
63,48,29,42,23,7,-59,-20,7
-18,-15,-2,0,-8,-8,-12,22,7
15,-6,-9,-18,-11,-1,20,23,7
-20,-29,-7,12,-10,-7,-18,-3,7
27,20,16,3,2,11,98,7,7
-12,21,10,5,10,23,-77,-29,7
-6,-44,-34,-34,-8,-7,66,20,7
-36,-14,-13,-39,-18,-10,-35,-2,7
52,21,13,26,12,-8,9,2,7
-34,-17,1,2,-7,-5,66,12,7
62,7,2,17,11,27,-49,-24,7
-8,-46,-15,-11,-2,-9,-7,-3,7
-19,-17,-7,-14,-11,-11,-29,2,7
18,3,0,2,6,11,-3,-29,7
-37,23,-1,24,10,-9,2,14,7
34,-3,0,-19,-12,-13,-81,1,7
13,-14,-2,3,-16,-2,39,3,7
-6,-5,-4,5,-2,1,-22,-7,7
-13,32,5,5,8,-9,-16,-7,7
5,-2,33,76,20,19,5,-8,7
-1,52,-12,-80,-1,5,27,20,7
-24,4,-14,-33,-16,-11,-48,0,7
-17,-45,-15,4,-5,-3,55,2,7
-4,25,19,-4,7,-8,-53,-2,7
8,8,-1,20,6,13,-4,-17,7
15,-11,3,20,4,6,127,32,7
-41,-16,-8,-24,-13,-5,-99,6,7
-16,-32,-13,6,10,13,-50,-29,7
-26,3,7,9,5,2,-7,-7,7
-1,-1,-22,-27,-6,-5,63,7,7
-10,4,30,58,2,9,-18,-7,7
-6,19,-23,-67,-17,-2,59,13,7
8,-11,10,52,4,-4,-39,-14,7
19,33,6,-15,8,5,-7,-6,7
-3,-33,-32,-72,-17,-11,9,23,7
-23,-7,-9,3,2,5,7,4,7
47,9,1,-14,-8,-4,-15,-10,7
-47,-25,6,23,1,-5,-16,2,7
1,19,9,25,3,3,11,-22,7
41,28,22,22,20,5,57,19,7
-14,19,-7,-18,-18,12,19,16,7
7,-4,8,-3,5,-9,-83,-21,7
6,-10,-6,-8,4,-27,40,15,7
1,5,4,9,-7,28,-73,-18,7
-23,-50,-9,9,0,-4,-26,-11,7
16,28,12,6,-3,-10,69,36,7
29,2,1,1,17,37,-121,-58,7
-5,25,-6,-1,1,-21,94,-10,7
-26,3,-3,46,17,2,21,-14,7
8,-30,-4,-64,-20,-8,0,8,7
2,-15,-21,-40,-18,-10,76,52,7
29,35,30,1,8,5,-11,6,7
18,27,8,-7,-7,-6,-24,-3,7
-13,19,-1,48,10,6,-6,-20,7
-2,13,13,38,16,2,11,-11,7
-45,-46,-31,-55,-28,-15,-28,10,7
-1,-12,36,55,3,-17,100,34,7
-66,-44,-40,-47,2,38,-75,-40,7
66,38,4,-21,-8,0,79,23,7
-19,-13,-5,16,3,-6,28,4,7
-15,-14,-13,-23,-10,-15,4,-30,7
37,37,19,59,5,-2,-6,-14,7
-37,3,-4,-32,-2,9,31,0,7
-38,-43,-11,7,4,-8,-76,2,7
10,-14,-7,-16,-6,1,-27,10,7
14,10,10,5,-4,-5,-8,2,7
0,12,2,24,13,3,-19,-11,7
38,14,46,67,7,-6,43,12,7
-29,-16,-32,-85,-11,3,86,27,7
-11,-1,-1,40,-15,7,-92,-54,7
-14,-2,-40,-59,-12,-28,-71,0,7
-30,-2,-2,46,-5,4,49,13,7
16,-41,-10,-39,-6,-11,-27,7,7
44,48,18,5,19,17,96,13,7
9,13,12,32,-9,-5,-1,-13,7
-38,30,19,10,5,9,-24,-26,7
-37,-48,-19,-2,-5,-8,-7,0,7
22,-21,-3,-7,0,-11,-16,24,7
-40,1,18,29,9,14,37,-1,7
67,7,-15,-37,0,3,4,3,7
27,40,18,25,12,3,-44,-2,7
-33,-24,-7,-5,-1,-25,11,23,7
37,-5,8,0,-2,24,80,5,7
0,-21,-22,-34,-14,-10,-58,-34,7
-21,-10,8,17,0,13,14,-3,7
50,52,2,5,6,-22,-103,-31,7
-50,-28,-15,0,-7,-11,8,19,7
-23,4,10,62,1,-7,43,5,7
40,-46,-34,-93,-17,2,4,9,7
-38,-5,13,12,-6,1,27,3,7
20,0,-13,-7,6,1,20,5,7
46,36,6,-17,4,-3,-15,12,7
-52,13,4,36,-7,-5,-62,-25,7
29,-11,5,-36,-1,0,83,17,7
-32,-13,6,30,-6,-18,-58,-11,7
-13,-6,-10,2,4,9,19,0,7
15,43,15,11,8,-2,-60,-17,7
-61,-43,-22,-11,-3,-1,45,16,7
31,-13,9,-4,-5,-5,12,-12,7
-27,-5,-13,-18,0,-7,-61,10,7
13,36,12,25,12,10,30,-3,7
-9,-19,24,41,3,-3,33,24,7
37,17,-12,-32,-4,-1,-14,5,7
-23,-59,-21,-44,-14,9,26,11,7
14,60,21,0,23,10,73,22,7
53,-17,19,68,9,16,-33,-29,7
-98,-32,-19,-66,-32,-21,-19,12,7
-8,-3,13,20,14,14,47,-12,7
-40,-25,-7,-21,-6,-10,-69,-2,7
-42,-22,-27,-6,-11,-7,49,11,7
28,15,25,35,12,5,-2,-2,7
14,22,2,-6,-1,-3,-15,-6,7
22,5,3,18,0,-4,11,14,7
3,14,-2,-12,4,5,90,-6,7
-28,-4,1,7,-1,-2,-69,-19,7
12,1,-5,-22,-1,-4,-18,-2,7
18,9,5,57,8,-12,-44,-14,7
15,6,-2,-13,0,22,83,40,7
59,16,20,-8,-2,2,-101,-43,7
44,-8,-21,-47,2,-4,109,20,7
0,-19,-12,-9,-9,-9,39,3,7
20,40,-7,-7,1,3,-59,-18,7
-8,24,14,10,-11,-4,55,24,7
-53,-28,23,5,-7,-4,-42,-8,7
59,28,-7,34,5,9,13,-6,7
-63,-30,-18,-23,-10,-6,-17,15,7
29,-2,20,53,33,17,6,-11,7
-22,27,-12,-22,-17,-10,45,26,7
-5,9,1,-34,-4,4,-13,5,7
28,2,-3,-2,2,4,-65,-28,7
-22,-8,-7,1,2,-15,-47,-12,7
12,3,-5,10,2,-4,-3,-1,7
-39,8,17,10,0,12,106,12,7
32,-24,-14,-17,-2,-20,-113,-27,7
-1,-3,-4,0,5,9,87,5,7
48,2,3,9,3,6,-58,-10,7
-4,-9,3,36,-2,9,63,-11,7
13,-23,5,7,4,-6,-88,0,7
7,6,-38,-77,-29,-12,39,30,7
-49,26,31,34,21,-3,6,2,7
56,-4,20,79,13,23,19,-7,7
32,13,-29,-107,-19,-10,89,46,7
-85,-74,-12,26,-4,-5,-108,-44,7
5,30,-6,8,8,-4,3,0,7
45,-41,-25,-22,-14,-17,-8,2,7
-32,28,31,65,14,-11,61,18,7
12,-3,-2,1,-11,18,37,16,7
-14,-10,-6,-10,-1,-4,-82,-42,7
-12,24,9,-1,11,-2,-50,-14,7
7,-4,2,-1,-2,3,48,-22,7
13,8,4,-9,3,-9,-1,13,7
8,-6,-3,16,-5,3,-11,0,7
38,-1,-5,-28,-6,-13,-59,2,7
-18,-3,-7,-19,-10,-1,21,5,7
-7,9,4,24,6,1,35,8,7
25,-12,-6,1,2,1,25,2,7
-28,8,29,63,13,-1,-33,-13,7
-52,-34,-49,-99,-40,-16,-20,23,7
24,8,25,93,18,3,17,-2,7
-9,-6,5,-50,-17,-3,-15,-9,7
-12,-3,-26,-46,4,3,14,16,7
0,4,6,-9,-2,2,-21,1,7
-14,24,6,23,2,-3,-5,0,7
25,-8,2,-2,-10,-4,19,3,7
-34,-8,-4,1,7,0,-11,-17,7
-30,-2,12,37,10,9,-11,-11,7
47,3,-9,-30,4,4,13,8,7
-12,-19,2,30,11,5,16,-1,7
-11,10,-2,-31,-12,-1,43,13,7
-19,-6,2,12,5,-1,-74,-22,7
-6,4,7,-3,2,2,10,-4,7
10,4,-12,-2,-8,-15,63,18,7
-26,-11,-1,-3,-5,13,-37,-26,7
26,25,18,26,5,4,-28,-12,7
8,-2,32,63,4,-9,26,-3,7
-49,-24,-53,-91,-25,-2,-9,5,7
-20,-29,-20,10,-1,-15,-76,-2,7
6,13,10,0,-7,9,73,8,7
18,57,16,15,15,9,-75,-25,7
67,-50,-5,31,12,-7,23,5,7
-85,-21,3,-4,-17,10,-43,-19,7
80,-2,-9,-5,1,-4,-5,6,7
25,45,44,86,5,10,104,5,7
4,-7,-38,-90,-10,-3,-29,9,7
-47,-8,-2,3,-1,-6,49,19,7
0,0,3,31,9,2,16,-8,7
-23,-16,-18,-33,-13,-1,-13,6,7
24,60,31,51,10,5,2,0,7
0,-24,-14,-26,-8,-10,14,7,7
-21,17,9,5,4,9,-18,1,7
-3,-19,-20,-50,-9,-6,104,33,7
-51,-17,6,34,6,14,-115,-51,7
76,16,-1,-24,1,-8,-32,3,7
7,8,2,41,2,-7,-27,-14,7
-9,-27,-1,-20,-3,0,50,22,7
-11,4,1,-10,-4,7,103,2,7
-9,24,-4,-3,-4,-2,-77,-27,7
-22,-42,-3,-6,23,10,52,12,7
-10,-22,-38,-62,-36,-20,-9,1,7
-48,-53,-5,54,9,-13,29,-11,7
14,51,24,-25,-24,-8,20,1,7
19,1,-7,13,6,6,6,10,7
26,24,3,-13,22,3,-45,2,7
29,6,4,17,-10,6,-3,4,7
6,-44,-11,11,10,-1,48,21,7
-18,7,0,-4,-9,3,59,3,7
-29,-13,3,-4,4,-5,-99,-25,7
8,31,11,-1,0,1,69,18,7
18,10,5,9,8,0,-57,-5,7
-4,-6,-4,-11,-7,-8,-46,-8,7
6,15,-7,-1,0,9,5,-14,7
-12,16,24,29,7,-1,1,10,7
-4,-5,8,18,-22,-12,29,7,7
-34,-27,-47,-101,-23,-3,66,4,7
-15,23,10,43,15,-17,-128,-53,7
20,-35,-40,-22,-19,-6,82,20,7
23,5,9,-8,11,-1,12,1,7
30,35,25,20,-10,-12,-33,-6,7
3,-31,-26,-25,-28,-5,46,11,7
-3,17,8,15,18,7,-7,4,7
-14,-22,7,7,9,-2,-2,-10,7
47,36,13,12,8,7,-13,2,7
42,1,-3,22,0,-1,51,26,7
-13,5,-4,-40,-5,-7,-41,-19,7
-43,-8,-16,-5,6,20,-12,-12,7
-62,-27,3,23,4,-6,-38,-17,7
9,-2,-6,-17,-2,1,127,33,7
23,26,22,-2,-1,11,-47,-10,7
10,-16,-12,2,2,-6,-14,-8,7
9,-17,-11,26,-7,-14,103,35,7
-25,9,2,6,20,27,-106,-47,7
13,-5,-8,-24,-15,-8,13,22,7
-35,-17,-18,-1,-20,-17,9,-4,7
-20,-5,8,-23,4,8,-14,-4,7
-13,-34,-17,-15,-11,-19,-9,11,7
-21,36,0,6,-4,7,-6,-14,7
25,-42,-14,-5,-16,2,13,1,7
-33,19,6,7,8,-11,-18,-4,7
-8,-25,-4,-15,-6,3,29,12,7
11,30,10,11,15,9,-32,-4,7
26,12,5,5,1,-6,3,14,7
8,-9,-3,3,-2,7,47,15,7
-31,-1,19,-1,10,1,-74,-29,7
-3,0,-25,1,-4,-2,92,25,7
-38,-19,10,-35,0,14,-59,-31,7
34,13,-1,6,-1,-7,-62,-5,7
-9,16,3,-7,-1,9,87,24,7
1,-40,11,35,0,-18,-111,-35,7
10,51,5,26,15,5,72,14,7
-7,-7,5,-21,-14,-17,-16,-7,7
28,16,-16,4,1,-6,-92,-12,7
10,-25,-5,-11,5,7,51,9,7
12,51,34,19,32,18,31,19,7
18,-21,-3,-39,-34,-17,-50,-19,7
13,-9,-26,-2,-11,-8,48,27,7
-47,-38,-8,34,8,0,-18,-16,7
-4,-14,-11,-39,-3,-5,-8,-5,7
-32,18,27,57,12,15,62,11,7
55,4,8,-13,0,2,-15,-9,7
-25,13,-1,-9,-1,16,31,9,7
47,-8,-5,12,1,-4,-37,6,7
-21,16,-8,8,13,28,45,1,7
-14,-17,-4,-15,-7,-3,1,-10,7
-7,4,14,10,0,-13,17,18,7
-4,10,-2,-1,2,11,113,6,7
11,2,-15,1,2,7,-102,-11,7
-53,-17,6,21,14,12,40,13,7
27,16,21,-49,-7,-12,-36,1,7
15,19,-11,-14,-7,-4,45,24,7
33,-4,-13,10,-3,-5,-16,-12,7
-9,-16,34,85,12,1,28,-5,7
66,32,-12,-70,-16,-4,-46,5,7
49,20,-4,1,-15,-11,-27,-8,7
-38,-41,-35,-49,6,6,34,7,7
-74,-10,6,20,-13,-14,-73,-7,7
-6,-12,-11,5,3,3,34,1,7
11,30,23,18,12,-1,63,18,7
19,-19,0,16,2,19,-80,-27,7
-22,-6,-11,-34,-2,0,92,5,7
5,2,5,17,2,-2,-80,-17,7
-16,-4,-6,-5,-9,-18,7,2,7
-22,-1,13,18,10,21,49,-3,7
23,21,-5,-21,-3,-14,-39,8,7
-27,4,0,5,1,4,-12,-6,7
-9,-17,16,36,5,4,6,-2,7
5,11,-22,-18,-6,-14,45,5,7
55,34,18,10,18,12,-22,-2,7
-1,-52,-28,-25,-36,-9,78,29,7
-80,-14,26,3,-13,-18,-88,-19,7
1,-20,-57,-69,-12,-10,-11,4,7
47,9,23,48,13,2,1,-8,7
41,53,18,46,15,2,37,3,7
-38,-48,-1,37,4,0,48,-14,7
-2,50,16,-42,-12,-7,-113,-2,7
-61,-77,-40,-49,-15,-13,-30,-7,7
-46,-2,7,5,4,3,24,6,7
19,5,-8,3,-1,7,-21,-5,7
6,25,23,47,12,-13,30,1,7
5,5,-10,-28,-5,11,56,16,7
2,-3,7,12,2,-13,-86,-20,7
-14,4,-13,-18,-3,-8,1,9,7
8,-12,14,18,6,13,18,-18,7
12,12,-3,-15,0,5,8,13,7
-3,-4,18,52,2,-10,-16,-11,7
13,-23,-21,-50,-2,5,-12,12,7
16,59,50,56,2,-3,52,19,7
-19,-12,-35,-50,-7,-10,21,-6,7
-18,-47,-9,-9,-9,4,19,12,7
-29,20,3,20,1,-5,-103,-38,7
36,-10,-5,-31,-13,-4,26,10,7
16,39,26,63,18,7,36,5,7
2,-21,0,7,5,7,-62,-21,7
-23,-53,-19,7,-5,5,63,17,7
11,5,6,-43,-5,-7,-49,7,7
15,35,11,1,-2,-5,-14,-7,7
39,11,-5,-22,6,-7,30,4,7
14,-7,-9,14,0,14,10,2,7
-2,-3,4,22,7,-4,9,3,7
-1,-17,-9,-26,-7,-7,-102,-17,7
3,15,7,5,-1,14,47,4,7
49,23,-4,-13,-3,-14,29,5,7
-39,-20,-3,22,9,20,30,4,7
-22,-9,0,-21,-9,-7,-11,-11,7
4,10,2,17,9,-2,47,1,7
30,18,1,57,5,-9,-79,-7,7
-21,-41,-20,-68,-4,6,90,-6,7
25,65,21,5,-4,6,25,21,7
-41,-10,-7,-2,-10,-2,-33,-3,7
-15,-14,16,-28,-4,-5,18,4,7
32,16,-20,52,10,-5,-37,-5,7
-73,-62,4,12,-2,8,15,-2,7
42,45,15,21,4,-9,26,10,7
88,25,-15,-92,-17,1,-20,2,7
-59,-27,6,22,0,-7,-53,-4,7
31,-15,-7,-6,-3,14,91,12,7
-43,-27,-10,5,6,10,-92,-45,7
-11,35,19,15,3,6,25,9,7
-7,-7,0,-1,-3,-8,1,-6,7
10,6,-13,-9,-5,-5,62,14,7
-16,-10,1,4,3,8,-6,-5,7
-10,-6,-6,-28,-9,1,54,12,7
-38,16,13,19,8,-5,-64,-7,7
-38,-24,-9,-5,-8,-7,-55,-7,7
19,2,-15,-31,-6,-2,43,4,7
-7,27,12,49,5,1,-28,-13,7
-6,-27,-27,-31,3,-2,111,19,7
16,19,29,-4,-13,-18,-97,-31,7
-13,-21,-32,-54,-11,-9,23,31,7
-34,-13,-14,-3,2,1,14,-14,7
27,20,8,63,-3,-6,32,2,7
20,-19,4,31,17,-1,-9,-2,7
8,55,26,-16,4,22,9,-4,7
5,-26,-7,11,2,15,71,16,7
11,-6,8,-2,-3,-4,-20,3,7
-6,1,-11,-8,3,-3,-84,-22,7
5,-7,5,24,-1,1,-15,-9,7
-32,-10,-11,-16,-1,-6,36,8,7
48,19,22,48,5,-2,-5,-8,7
11,8,-21,-41,-1,12,127,41,7
-21,-13,-18,18,2,3,-74,-17,7
-12,-14,1,-38,-8,-4,-57,-21,7
-13,32,16,-31,-20,-9,18,15,7
21,-48,-9,21,3,-3,20,3,7
19,69,-4,-33,-10,-5,50,11,7
25,6,29,103,29,9,-8,-19,7
-44,-3,-17,-100,-16,-4,-46,7,7
-47,-48,-14,33,-10,-9,23,19,7
-32,-46,-20,-20,-4,-19,-26,-7,7
56,43,5,-4,1,12,1,12,7
30,3,14,25,12,6,37,-5,7
22,43,12,-3,-3,6,-28,-23,7
19,-28,0,-7,1,-21,-42,-2,7
-85,-1,-5,-4,-3,1,22,-8,7
4,-6,-5,10,-2,-4,-35,4,7
11,9,0,-27,-2,8,57,10,7
32,-1,13,27,3,3,22,-5,7
-9,-14,-11,-25,-3,-6,-16,9,7
13,0,16,65,19,10,-12,-15,7
-9,-22,-40,-72,-32,-24,-20,-5,7
-3,13,24,24,-3,2,48,19,7
1,4,-14,-78,-9,0,-12,-2,7
32,20,34,71,11,8,-8,5,7
-13,-22,-47,-60,1,0,6,-2,7
-2,15,-2,1,-6,-9,45,8,7
-5,-40,-12,-18,-10,21,-64,-3,7
-23,-1,-13,13,8,-3,26,-3,7
-19,6,32,51,6,-7,-68,-24,7
4,1,-1,4,5,16,93,14,7
-6,3,-4,4,6,-15,-76,-23,7
-36,-9,-14,-19,-15,-12,-83,-23,7
12,21,18,19,10,8,-37,-1,7
5,-20,-6,-8,0,-4,60,21,7
15,4,2,31,2,-12,-4,2,7
-2,-3,-9,-48,-17,3,67,8,7
43,8,13,8,3,-5,-68,-14,7
21,-11,1,30,4,-2,-16,-7,7
-3,5,5,2,2,-4,12,4,7
-13,-35,-3,23,0,6,12,-2,7
55,58,-2,-82,-23,-11,45,18,7
-34,-3,-11,-23,-14,-11,-96,-21,7
-12,-33,-2,41,10,13,17,5,7
7,-1,9,16,3,-2,-8,1,7
24,27,21,4,9,1,44,12,7
5,0,3,2,9,5,21,8,7
-18,-17,-19,-21,-11,-3,110,19,7
-55,6,15,17,13,14,-84,-40,7
-69,-25,-12,17,-2,-7,-22,-10,7
-11,16,10,14,11,14,-4,-13,7
31,11,-9,-29,-6,-6,89,18,7
40,10,4,-8,1,-8,30,21,7
-10,19,4,16,8,16,-8,-7,7
-2,-17,-5,-3,-2,-9,-59,-3,7
-10,1,-22,-12,-7,-12,-3,-1,7
19,6,34,-16,-12,-4,26,8,7
19,-2,10,64,9,3,8,1,7
5,-27,4,5,16,4,-13,-6,7
-24,5,-15,-81,-24,-12,-45,5,7
9,-14,-42,-37,-4,-5,-23,-2,7
-9,3,13,22,6,6,17,18,7
37,-13,6,27,1,1,29,-11,7
5,4,6,36,23,4,40,-2,7
-17,57,5,-17,-14,1,-16,-13,7
-17,-27,-4,-10,-10,-16,-17,-11,7
-27,4,-4,-14,-6,4,8,4,7
8,-9,-2,0,-5,-7,-22,-3,7
23,-8,-14,-3,3,2,70,27,7
12,25,5,16,6,16,22,4,7
26,10,-1,1,2,4,54,13,7
0,18,23,2,-4,-8,-30,7,7
5,-24,-13,4,15,12,-89,-41,7
-27,4,4,1,-3,6,63,1,7
-21,-25,-33,-8,13,-5,15,0,7
-17,6,27,11,-20,13,10,1,7
-2,-55,-30,-53,-23,-13,86,28,7
10,46,-3,10,0,-1,-111,-28,7
-27,-9,-1,12,8,2,1,7,7
26,28,7,44,25,7,-8,-6,7
-10,-44,-12,-34,-16,-15,-10,-3,7
-2,-4,5,1,1,3,29,18,7
-13,16,13,-3,-18,-6,88,3,7
-23,33,-3,13,1,-22,-106,-40,7
-40,-33,-8,-5,10,23,41,-2,7
5,-11,-10,26,18,-7,-8,-5,7
0,15,7,-38,-18,-12,-102,-11,7
11,-40,-7,-23,-12,-3,51,16,7
31,33,6,15,7,-3,-10,2,7
-46,-12,-3,3,-4,-6,35,14,7
21,4,1,5,10,16,-38,-1,7
24,-31,-2,9,0,3,-4,-7,7
8,51,-1,-5,8,-1,4,2,7
-6,-39,-7,17,-1,-1,75,12,7
-29,24,-1,-28,-11,1,-63,-10,7
-11,-28,-14,-65,-23,-7,-34,7,7
-1,-14,26,64,6,-1,37,10,7
21,21,-22,-48,0,6,-43,-19,7
45,-21,-1,42,-1,-7,-12,10,7
21,50,-1,-35,-2,3,123,23,7
-12,-4,-6,49,15,-6,-124,-26,7
3,-21,2,-44,-15,3,27,0,7
4,7,6,13,6,10,-28,-9,7
10,-14,-8,10,2,1,11,3,7
0,3,-1,-16,-7,-2,21,32,7
-28,11,1,6,1,-9,46,-10,7
-2,-8,-1,-6,1,2,-38,2,7
-19,-7,10,22,8,-2,-57,-20,7
-11,18,-5,-16,-3,-7,11,-3,7
8,-20,-2,18,3,5,-18,-2,7
-5,5,3,-18,-11,-13,32,14,7
-12,-21,-2,34,10,-1,44,3,7
-17,42,-1,13,4,5,-51,-23,7
-33,-43,-14,-26,-23,-8,-9,10,7
84,-12,-14,-54,-12,-11,41,13,7
14,25,38,63,15,13,-17,-10,7
-22,-39,-44,-68,-22,-6,1,0,7
5,17,3,7,1,3,-9,6,7
-31,17,9,36,13,-2,6,-1,7
13,-14,-12,-16,-2,-3,36,13,7
14,20,25,-7,-13,11,12,-7,7
13,-41,-3,19,2,-11,-12,0,7
-32,-6,-7,-12,-1,15,52,1,7
1,13,0,12,5,5,-88,-14,7
18,6,11,14,5,-12,21,10,7
7,5,-4,-17,-6,-2,50,13,7
-28,-7,4,15,8,7,-52,-40,7
-8,-7,12,29,11,3,89,9,7
-5,9,-24,-57,-14,16,-11,-9,7
-4,1,4,-1,-7,-12,-81,-10,7
8,-24,-5,-2,-7,-14,33,10,7
-1,28,3,-10,-1,3,-41,-6,7
-15,-25,7,46,1,-7,15,2,7
-2,-15,-7,-12,5,6,49,17,7
-26,-15,-8,-54,-9,3,-19,2,7
18,21,-3,-4,-6,-4,-23,8,7
5,0,8,46,16,-1,38,0,7
1,-29,2,9,-1,2,-28,-2,7
-12,7,-1,-2,-4,1,21,3,7
10,-22,-11,-24,-10,-5,27,11,7
-23,6,-1,-3,5,-2,-29,2,7
2,11,4,17,3,-3,-56,-31,7
-19,1,1,9,3,-4,-5,-6,7
33,3,-2,-5,-4,8,74,15,7
-2,3,3,0,0,1,-43,0,7
-10,4,-6,2,8,-3,22,-8,7
20,21,14,26,6,0,19,6,7
-12,-25,-8,-18,1,-3,15,-5,7
4,-1,-3,-41,-21,-9,-7,9,7
21,24,12,-9,-3,-2,-29,-2,7
42,1,-4,29,8,-9,-43,-3,7
-24,-13,-1,-7,-2,-1,-25,-9,7
51,21,-1,78,23,4,36,3,7
-23,7,29,-88,-9,13,28,12,7
-46,-29,-28,-39,-14,-4,-4,16,7
5,30,1,-9,0,-4,-8,3,7
-11,-23,-7,10,-2,-5,-14,-13,7
60,26,5,60,14,8,4,-8,7
49,4,14,10,2,-5,17,10,7
-60,-10,-3,-9,-4,5,-25,-7,7
-66,-6,-7,-23,-8,-11,25,-10,7
18,5,-2,20,7,10,-22,6,7
-5,2,1,-9,-3,-3,-34,-21,7
-32,-1,-4,13,-3,-6,-28,-13,7
88,-6,5,-7,-1,-6,19,11,7
32,3,-10,3,-1,3,113,23,7
-21,-3,0,1,-1,9,-67,-19,7
12,32,10,37,3,10,-17,-3,7
-51,-16,4,-46,-4,2,27,5,7
-55,-57,-32,-36,-10,-12,-28,8,7
75,36,18,24,6,4,71,7,7
16,41,-2,14,-5,-6,-21,-4,7
15,-19,6,-18,-10,1,-2,4,7
-11,6,10,20,5,1,-2,-3,7
-55,7,-9,-5,-1,-1,-8,-5,7
22,-33,-11,-7,-1,-7,-6,5,7
-19,10,-3,10,3,0,17,0,7
10,5,-1,-3,-4,-7,-37,-6,7
-23,-22,-3,7,3,4,-16,-6,7
21,19,4,-12,-2,-11,27,-1,7
13,-21,-8,-5,-1,8,28,13,7
-13,21,-1,9,1,-6,-65,-29,7
-21,-6,3,5,-4,-4,25,4,7
3,-14,-3,22,4,4,-1,-5,7
41,-1,16,-2,2,-5,-8,-3,7
-16,8,-21,-30,2,0,25,0,7
29,24,14,1,-9,-24,37,21,7
-44,-62,-23,-40,-10,20,-53,-10,7
47,17,8,6,-8,-9,-51,-3,7
0,9,-10,56,13,9,49,-5,7
-7,15,15,-43,3,-3,-39,5,7
1,-1,-3,-14,-7,-2,62,20,7
-16,9,-4,-1,-7,-6,3,1,7
16,-15,9,9,-5,0,-22,2,7
-16,-6,-16,3,-1,-5,-2,-5,7
-25,-9,6,7,7,10,6,-23,7
0,-10,-4,-3,1,0,-66,-14,7
14,18,0,-2,-5,-13,45,13,7
-10,-18,-2,5,4,28,47,3,7
4,16,5,-7,-4,-20,-77,-6,7
4,-9,-6,1,-3,-4,6,-16,7
-4,-1,14,8,5,-6,12,19,7
15,6,-19,15,1,15,19,-7,7
6,-17,5,-23,-7,-4,4,4,7
-14,9,-1,-16,-6,-7,-31,9,7
-35,-19,-2,9,3,-6,21,-2,7
4,8,9,1,-2,5,-44,-17,7
34,26,-2,-10,-6,-5,33,17,7
-50,-35,-21,5,2,0,23,2,7
2,-9,15,9,-3,4,-15,-3,7
16,2,-1,-14,2,-1,9,2,7
-1,24,4,10,8,0,12,5,7
-7,6,3,0,5,3,9,-4,7
21,-22,-5,6,1,10,-5,-3,7
-5,17,6,10,-7,-7,-4,-10,7
3,-19,3,9,-4,-17,-30,1,7
-10,8,-10,-6,5,14,102,11,7
-7,0,7,-22,-4,2,-50,-14,7
13,4,4,-6,-5,-11,-34,0,7
18,14,-7,-3,-4,-11,19,12,7
28,-23,-6,20,9,14,31,1,7
-17,22,2,-1,-11,1,-38,-31,7
20,2,-1,-30,-14,-18,-103,-8,7
-52,-27,-10,12,-1,1,0,-5,7
-21,27,12,-7,5,-8,9,8,7
22,-30,-23,-14,1,1,29,6,7
-7,7,12,7,-2,3,33,0,7
6,3,3,-8,-3,3,-1,2,7
6,3,-8,1,1,2,-17,0,7
4,18,7,-23,-9,0,-5,2,7
20,-27,-4,-6,8,4,31,9,7
-38,-24,-2,30,4,3,6,-13,7
4,5,10,21,3,-1,22,2,7
21,12,1,21,4,-4,-58,-1,7
-8,7,4,-11,-1,4,55,11,7
-36,-29,-11,-12,-1,-5,16,1,7
33,20,7,-10,0,2,-85,-18,7
-7,13,-3,4,-8,-18,39,14,7
-5,-17,-11,15,5,35,75,9,7
1,16,4,-6,2,0,-26,-7,7
-11,-22,1,-4,-11,-11,20,2,7
12,33,14,-2,1,3,32,8,7
20,-41,-33,14,0,0,20,11,7
9,0,7,-19,4,-1,19,-2,7
-6,-1,-5,-47,-24,12,8,7,7
-9,26,3,-21,4,-2,-47,-7,7
0,-7,4,33,4,-10,-5,-3,7
-23,-23,-15,7,4,2,-12,-6,7
8,-12,4,39,9,-4,72,14,7
3,10,9,-7,-1,-3,-41,-17,7
-20,-17,-8,-3,-2,-9,-2,-2,7
0,22,8,3,0,0,-82,-22,7
-18,-1,-11,8,0,-9,13,-5,7
-18,-29,-1,-22,2,6,33,8,7
7,-12,-5,8,-4,-12,30,-4,7
73,18,-4,-1,0,7,-9,16,7
-20,6,-1,-37,-14,-10,-96,-12,7
15,-17,0,15,1,6,40,1,7
-43,20,-3,-1,2,-3,-10,1,7
-9,-9,2,16,0,6,48,5,7
32,12,-16,-8,6,3,-4,-8,7
32,-1,13,12,1,1,-4,0,7
-1,17,0,-14,3,-2,-16,4,7
12,-18,-2,-2,-9,-4,16,2,7
-7,30,13,37,12,2,-9,-2,7
-7,24,-12,-27,-9,-6,-4,8,7
-34,-28,-9,-43,-14,-7,-3,-4,7
-2,-11,1,2,-4,-5,-19,-16,7
5,17,7,-7,-9,-8,34,1,7
4,2,-6,20,12,9,-5,-1,7
-3,0,9,20,3,1,-42,-2,7
-7,13,-5,-12,-1,-9,-45,-11,7
-1,-29,-3,15,4,3,2,-8,7
3,-19,-5,1,-4,6,49,4,7
-26,7,9,7,6,8,19,13,7
30,-11,-10,-12,-3,-8,-49,-4,7
25,16,5,2,0,-3,-26,3,7
-21,5,-7,8,-2,-3,11,4,7
9,-4,15,20,4,11,30,-6,7
-33,-4,-9,-44,-1,7,43,2,7
31,13,-8,1,3,-2,-20,2,7
-20,-16,-9,-23,-12,-9,-21,1,7
8,12,4,40,-2,-8,-17,-5,7
20,1,2,-24,8,2,30,13,7
-27,-13,-14,-35,-6,-1,-6,-13,7
-28,-34,8,22,-4,-4,-4,0,7
0,7,-18,9,-3,-5,-16,-6,7
-8,-21,15,59,10,10,32,3,7
-13,-9,-8,-3,8,4,8,-1,7
10,27,6,-33,-6,-2,6,10,7
-15,-11,0,-13,-12,-7,-37,-8,7
32,14,-2,-7,-2,9,7,13,7
-29,-10,2,10,1,3,61,7,7
17,6,-2,19,6,-8,-100,-28,7
28,12,1,-8,1,-6,17,2,7
-10,-6,-2,0,-3,15,76,18,7
-21,-1,17,34,4,-9,-63,-31,7
-8,-24,-37,-31,-4,-2,-41,-4,7
8,10,21,-8,0,0,17,6,7
-7,4,7,6,-4,-14,-12,0,7
-6,18,-4,5,0,3,18,5,7
-13,-43,-8,-13,3,4,26,1,7
-28,28,-2,-1,5,-8,-17,-7,7
15,-42,-12,-20,-11,-4,12,4,7
11,40,9,9,1,3,-9,13,7
12,11,-2,10,4,1,9,-12,7
-39,-53,-13,-8,-2,0,-5,4,7
1,11,8,23,9,4,19,2,7
32,9,-1,-26,-6,-14,-25,-4,7
-1,4,2,-6,-12,-6,5,2,7
5,13,-3,-18,3,14,37,-2,7
-18,1,-6,7,-7,-7,-27,-8,7
1,-34,2,2,3,-4,-17,-1,7
-12,18,6,4,6,7,68,16,7
6,5,-4,-4,-7,-4,-32,0,7
8,17,7,6,3,2,-29,-11,7
-4,-21,-9,-10,2,25,25,3,7
7,-6,3,15,2,-6,-4,-6,7
-1,-12,-8,-8,-5,-2,29,8,7
10,28,10,-1,1,-4,-5,-3,7
-30,-4,-4,-14,-4,3,15,13,7
6,19,15,25,6,1,4,-8,7
10,4,5,-21,3,-3,-9,3,7
-2,10,8,-4,-13,-10,-1,2,7
-5,-41,-19,-93,-1,0,22,7,7
-16,26,14,101,1,-2,8,6,7
-5,-13,-4,8,-2,-5,-22,-4,7
33,12,0,-3,7,1,0,-4,7
-1,-24,-4,4,3,3,77,13,7
9,3,4,-21,-6,21,-73,-23,7
5,-3,-2,-8,4,-1,10,9,7
3,0,-10,1,-3,-3,-28,-12,7
25,3,3,20,-5,-15,42,25,7
-17,-7,-6,-22,10,20,-77,-41,7
-39,2,-3,12,-8,-1,31,-10,7
-20,1,-4,-5,8,15,87,19,7
18,13,-2,13,-6,-14,-117,-25,7
8,-19,35,-23,-2,-9,58,26,7
11,13,-46,12,2,8,-5,-8,7
1,-14,19,13,6,-4,-41,-6,7
-13,-14,-1,25,2,7,13,-7,7
-17,-5,-16,-40,-11,-11,15,15,7
15,15,30,8,-5,-9,-37,-9,7
-13,-16,-31,-25,-2,-2,24,13,7
-5,7,-1,54,3,3,-16,-8,7
26,-18,1,-19,1,1,14,19,7
4,41,16,8,7,0,11,-17,7
5,8,3,-3,-12,-10,-18,-3,7
-66,-42,3,-7,-6,-2,30,0,7
9,23,-6,31,13,22,6,-8,7
30,-22,-7,-39,-4,19,22,21,7
-21,-10,-5,-2,-1,-5,-48,-11,7
14,19,0,-5,-1,-5,-44,-11,7
0,-8,-3,16,-4,-9,108,37,7
-4,-9,-1,8,12,28,-22,-21,7
21,17,5,-11,-4,-3,-46,-15,7
-14,-8,-2,3,-6,0,17,22,7
34,12,-3,-4,-4,-23,-55,-17,7
-23,-32,-8,-10,-5,-7,14,3,7
3,-3,0,8,3,2,33,5,7
13,0,10,5,4,3,1,-7,7
-3,-1,-16,0,-3,-3,16,8,7
35,29,11,-37,-5,-11,-10,4,7
-15,-5,13,50,4,2,-5,-5,7
25,18,-5,-28,4,3,4,9,7
-53,-15,-10,-15,-1,2,-5,-10,7
-2,-6,-1,-2,-8,-13,-23,-5,7
3,-3,-2,3,-1,-5,16,11,7
4,12,5,15,3,10,29,-3,7
21,-6,4,-1,1,-10,-20,-3,7
-28,-5,-8,-7,-1,-9,-67,-13,7
2,14,-5,-6,0,8,37,3,7
8,13,6,-4,-7,-8,-34,-4,7
-28,-5,-3,-5,0,-7,18,5,7
12,3,7,31,5,1,55,17,7
-29,-16,-6,-8,-4,-4,-48,-8,7
8,1,-1,-18,-5,-2,-27,-6,7
-22,-11,-3,0,-3,-1,-10,-5,7
7,15,6,10,2,-5,74,23,7
-27,-11,-3,-11,0,1,-87,-32,7
-5,-7,7,43,5,7,12,-4,7
27,28,-3,-36,-5,-1,8,9,7
-20,-55,-5,24,1,-5,-4,1,7
-1,8,-4,-12,-3,0,38,15,7
-2,-9,-1,0,-6,-8,4,5,7
0,-15,-5,7,0,1,17,-4,7
16,30,9,2,4,15,-61,-20,7
-11,-16,-8,-7,0,-3,7,2,7
4,-28,-3,-6,-4,-7,35,2,7
-7,33,3,8,3,15,-31,-13,7
-4,-4,-5,-9,-6,-10,-17,1,7
7,0,4,9,4,2,9,2,7
-5,-16,-12,-10,-1,6,15,1,7
11,17,11,20,-2,-3,48,2,7
-2,1,6,2,2,-1,-56,-8,7
-3,-5,-15,-27,-5,-2,-7,-10,7
6,10,5,-40,-10,-5,5,14,7
-7,-30,-10,15,-3,-1,6,3,7
0,-27,3,34,0,-7,4,1,7
4,-7,-1,-7,6,3,0,2,7
5,31,-7,21,6,5,-6,-7,7
5,-1,1,-31,-6,-4,-13,1,7
5,18,7,-9,-5,-5,57,2,7
-13,-18,-16,-7,-4,0,-79,-7,7
18,12,5,13,-1,-4,-28,-8,7
17,26,3,3,7,1,-8,-4,7
-13,-28,-7,0,0,-2,26,9,7
16,16,11,-1,-9,-11,89,18,7
-12,-5,2,-5,2,8,-89,-34,7
-15,-19,-10,2,-5,-8,-12,-10,7
12,9,-2,-8,1,0,-2,2,7
11,20,6,8,2,-4,17,3,7
-11,8,1,-5,-3,-4,50,13,7
3,-9,1,1,4,1,-4,-4,7
-12,-7,-12,-12,-5,-11,-45,-4,7
-13,1,3,30,8,1,0,-19,7
-14,-25,-3,-5,-6,-4,30,9,7
16,39,-4,-25,2,-5,-51,-13,7
-13,-12,6,-51,-12,9,40,7,7
7,8,6,18,-2,0,-1,5,7
-19,13,1,24,4,-3,-9,-2,7
-16,-5,-1,17,2,-2,18,11,7
2,-9,-4,0,-4,1,4,4,7
28,3,0,-21,-1,0,18,-4,7
-9,2,4,-2,3,0,-31,-8,7
-11,-19,-2,6,-1,2,13,-2,7
21,31,-1,0,4,-1,1,3,7
19,2,2,3,3,14,48,26,7
-10,-6,9,-13,-6,-12,-75,-36,7
13,-9,-14,-4,-3,-1,-6,13,7
4,-5,-1,10,2,-3,-8,0,7
-1,12,4,-5,0,-5,61,15,7
4,-17,-13,3,-1,6,-16,-10,7
-23,-15,23,-1,-1,-3,-41,-7,7
1,10,-9,-19,-4,-4,1,2,7
22,24,3,0,-9,-5,-46,-4,7
-9,2,-6,-7,3,0,13,6,7
4,-8,-4,19,14,6,18,3,7
-4,-6,-10,-42,-21,-10,-7,7,7
-11,9,6,6,3,0,0,-4,7
23,6,0,15,2,1,16,5,7
-31,-8,6,28,-1,-2,14,-2,7
14,4,-2,-12,5,2,-19,-13,7
-17,-12,-4,-2,2,4,5,0,7
17,7,5,-10,-11,-11,10,12,7
10,9,-11,-12,1,10,-9,-14,7
-4,-36,-13,13,1,2,15,2,7
-30,-16,8,-8,-6,-9,17,-14,7
2,-8,-7,8,7,2,-49,11,7
-15,32,14,-6,-2,3,48,3,7
-25,-3,11,19,3,9,-9,-13,7
10,-14,-12,14,2,-10,-68,-13,7
1,4,-7,-29,-3,7,73,17,7
4,-29,-10,-6,-7,-7,-34,1,7
4,25,7,23,3,12,40,0,7
-13,2,3,-3,1,0,-1,3,7
-4,-10,-5,-10,-9,-2,-1,-9,7
6,14,4,-38,-21,-4,7,17,7
-3,-19,-6,26,7,-6,-16,-5,7
19,5,1,-4,5,6,-6,4,7
-2,-9,-3,13,2,-4,-3,-4,7
-3,4,5,20,5,2,22,-1,7
33,28,4,-18,-3,-2,-24,-1,7
-30,-25,-9,5,-2,3,6,-1,7
13,10,4,-2,0,-3,5,5,7
-14,-23,-11,-5,-4,0,3,-4,7
-2,14,10,6,3,2,13,8,7
6,3,-4,-7,0,5,-10,-3,7
-5,-8,-1,0,0,-4,18,4,7
13,-5,0,13,6,-7,-37,-7,7
-13,37,5,2,-2,-8,-10,-8,7
6,-5,-3,-14,-8,-2,35,0,7
-13,-8,-5,-29,-4,-7,-55,-9,7
5,-4,8,48,-2,-2,24,11,7
9,1,10,17,13,1,-4,-3,7
-9,6,-13,2,-7,-2,-6,-2,7
-4,7,12,6,2,4,23,8,7
-3,-25,-23,-80,-20,-11,0,1,7
-1,13,10,49,5,2,-10,0,7
-28,1,2,-4,1,6,19,-1,7
28,7,6,18,4,4,15,-3,7
-5,-9,-3,-1,0,-1,-22,-2,7
0,-8,-1,-11,-1,0,8,3,7
-13,-9,-2,-5,0,-5,0,0,7
-3,0,-6,-4,-2,-1,43,15,7
3,9,9,8,6,10,-36,-25,7
1,-6,-9,-15,-9,-5,17,3,7
14,-2,0,8,2,-2,-15,1,7
-17,6,-1,0,-3,-8,-7,-2,7
8,6,3,8,2,-1,26,2,7
-4,-23,-13,-1,-1,-2,-29,-6,7
17,19,7,-16,-8,-6,-2,13,7
-14,-23,-13,-2,-3,2,1,-15,7
14,-6,3,-28,-3,0,1,1,7
-16,21,3,36,-1,1,16,-5,7
-7,-21,-5,8,8,2,-10,4,7
-7,-30,-7,-7,-3,0,-15,1,7
-10,7,-4,3,5,2,1,1,7
-2,-1,0,-8,-4,-5,23,4,7
11,10,9,-6,0,9,-8,-7,7
-1,6,3,7,2,8,-4,-3,7
6,6,2,7,2,-6,-1,6,7
6,-21,-5,-18,-2,3,4,-8,7
-18,5,-15,6,-3,0,32,-3,7
13,5,13,0,2,4,-20,0,7
-1,22,-1,4,1,-2,-6,0,7
-6,8,-2,-26,-9,-7,-3,6,7
6,-13,2,1,0,-7,-33,-10,7
1,4,1,18,3,1,19,3,7
-4,-2,-13,-27,-12,-2,-5,-5,7
15,3,6,21,7,5,3,3,7
-5,-1,-4,11,-1,-3,1,-4,7
-1,1,-2,-36,-7,2,-2,6,7
8,8,6,-6,3,1,6,4,7
-14,-31,-10,20,0,0,-11,-6,7
10,25,11,-4,-3,-2,14,9,7
2,8,-10,22,7,0,-21,-10,7
11,-4,10,-10,-2,-1,10,5,7
-25,-2,-10,-28,-7,-5,-4,2,7
-2,-19,-3,11,2,5,-15,-6,7
-11,-21,0,-2,-2,-4,5,0,7
-4,11,-6,5,0,3,-4,-1,7
24,8,10,-9,-1,0,24,11,7
16,1,-5,7,0,-5,-29,0,7
-2,5,-6,-21,-8,-3,18,0,7
-6,-23,-7,11,1,-2,-19,-16,7
17,3,5,5,5,1,1,5,7
9,21,-5,-20,0,-1,29,6,7
-5,-16,13,5,-5,5,-19,-8,7
20,-5,-15,5,-3,-6,8,5,7
-13,9,-1,-15,-5,-4,35,5,7
0,-9,0,1,5,4,-74,-19,7
4,-1,-4,9,5,1,18,3,7
-5,22,14,4,-2,1,26,10,7
2,-28,-10,10,-2,-7,-58,-9,7
-11,-8,-2,-8,-8,-3,47,11,7
-2,13,6,7,0,-4,-25,-12,7
-8,1,-10,1,4,5,-10,-3,7
12,-2,-6,-19,-2,1,12,4,7
-11,0,4,11,2,0,12,2,7
1,6,11,1,1,-1,-28,4,7
-4,-3,6,-3,-1,-1,46,11,7
-3,-1,3,4,-1,2,-35,-14,7
1,12,5,-3,-2,3,6,2,7
18,5,-5,1,3,-2,18,3,7
-11,-25,-4,9,6,-4,-36,-5,7
-15,13,3,9,-1,2,0,-1,7
-5,-39,3,8,-2,-6,2,3,7
-5,12,-19,-48,-5,-6,55,11,7
-3,-13,-2,-10,-6,-5,-92,-25,7
-8,1,-4,-2,1,-3,-20,-8,7
5,11,-3,-10,-3,-5,1,-1,7
4,13,6,30,2,1,7,13,7
-12,-47,-14,-2,1,13,45,0,7
2,26,9,4,4,1,3,-3,7
10,0,7,10,1,-4,-15,-5,7
-2,-15,-17,-18,-9,-8,-10,0,7
-8,5,11,23,0,2,20,9,7
20,-19,-13,-18,-2,0,-9,1,7
2,17,10,3,-1,5,18,7,7
-19,-6,-3,8,0,0,-7,-16,7
1,18,5,12,2,0,-3,3,7
-1,-2,-4,-9,-5,-5,7,5,7
-18,-16,-12,-16,-5,-3,0,-1,7
1,2,1,7,-2,0,-9,8,7
8,5,-1,-13,-6,-2,9,-11,7
-15,2,0,12,1,0,22,1,7
3,11,7,-7,2,-2,-30,-8,7
0,-16,-6,4,0,3,9,-3,7
2,6,-2,1,0,-8,-19,2,7
-2,-9,0,1,1,6,-1,-4,7
3,5,-4,-12,-3,-1,5,-5,7
-3,28,5,15,-7,-11,14,6,7
16,15,-2,12,-1,-4,-27,1,7
-13,-19,-6,-31,-2,0,32,3,7
-14,-13,-5,0,-3,-1,-14,-1,7
-3,7,5,-2,3,0,-20,-7,7
13,13,8,1,-1,1,53,11,7
15,4,7,22,-1,5,-33,-8,7
1,-14,-12,-6,-4,-3,16,3,7
-4,-1,-3,-22,2,2,0,5,7
-9,-11,-2,-3,-3,-1,-13,-4,7
11,7,8,-6,1,2,22,1,7
9,8,2,8,4,4,-13,1,7
1,-25,-6,8,1,-1,-9,-6,7
-8,29,6,0,3,3,19,5,7
-2,-4,-8,-7,0,-3,-9,1,7
1,4,3,0,-3,-2,-21,-1,7
-11,-3,0,1,0,-1,-12,-11,7
-5,-9,-1,-2,-2,0,7,6,7
-2,-6,-9,9,-2,-3,-27,4,7
-5,4,8,-5,4,1,20,-13,7
-1,9,4,3,-4,-2,14,7,7
18,-2,-4,-15,0,6,-9,-4,7
-9,-21,-3,14,3,-5,-2,5,7
-2,-13,-4,-4,-4,-2,13,6,7
13,4,-3,-3,0,8,-6,-2,7
0,3,-1,5,1,0,11,-1,7
-17,5,1,3,-4,-3,-8,-2,7
0,2,4,-2,0,2,4,-1,7
20,5,-3,-21,-3,-6,-1,2,7
-13,-8,-8,-3,0,-6,5,4,7
-1,3,3,1,3,1,-5,-4,7
-1,4,-2,12,1,-3,-11,0,7
3,-3,4,-1,-1,2,17,8,7
1,-5,0,1,0,-1,-11,-3,7
1,9,1,-1,1,2,10,-5,7
-1,-2,-5,-4,-2,-5,-12,4,7
41,4,-4,-1,6,21,37,5,7
-5,-18,9,13,3,0,-16,-6,7
-15,17,9,31,2,-5,-10,-2,7
1,-16,-17,-33,-6,0,11,14,7
-13,-21,-14,-4,-10,-4,12,-12,7
5,23,9,-18,-6,-4,12,2,7
37,14,-2,-7,6,2,-19,-3,7
-12,-4,-2,23,2,0,23,5,7
-5,6,17,-6,-4,-4,-3,7,7
10,2,-1,11,-1,0,-31,-8,7
-20,-37,-16,-21,-4,-1,15,0,7
2,7,-4,-12,-1,0,-2,7,7
-5,4,2,11,4,-2,-21,-12,7
-4,-5,0,5,-2,0,6,1,7
0,13,3,-8,-3,0,9,1,7
13,3,3,11,1,-1,5,-1,7
-16,-18,-4,4,-3,-6,-27,-5,7
-5,7,-2,-6,-3,1,29,3,7
0,-5,-5,-4,-2,-3,-23,-2,7
-1,-7,1,-5,1,-1,-15,-8,7
-17,-4,1,25,6,0,8,3,7
-3,-20,6,-8,0,0,-11,-6,7
26,46,-9,-15,-6,6,5,5,7
20,-6,13,8,-2,-7,7,0,7
7,14,6,18,5,2,-23,1,7
10,-16,-15,-10,-5,4,23,8,7
-46,-29,1,-16,-7,-10,-10,-8,7
2,7,0,9,-1,1,-31,-8,7
4,3,-2,-7,2,6,11,3,7
3,-7,2,8,4,-1,1,3,7
-30,-5,0,5,1,1,9,0,7
1,5,-1,-7,-5,-1,9,3,7
-8,-1,2,-4,1,-4,9,4,7
-6,8,-8,-4,-3,-3,-5,-1,7
12,0,8,6,4,4,-18,-14,7
-18,-18,-6,2,-1,-1,4,-7,7
8,14,3,-4,0,-3,-8,8,7
-5,-5,-3,5,3,11,52,5,7
6,7,11,3,-4,-9,-30,1,7
-3,14,-10,-31,-7,6,73,7,7
0,1,4,18,1,0,-66,-17,7
13,-13,-17,-7,-2,-8,6,1,7
-13,0,2,9,3,-2,6,4,7
-2,1,-2,-5,-1,1,-2,-2,7
-7,-10,1,-2,-5,-3,28,6,7
-18,-10,6,4,0,3,-23,-6,7
43,16,2,5,2,5,10,-2,7
8,7,-7,-5,5,0,-15,-3,7
-6,-5,-6,-10,-2,-1,11,0,7
-15,-18,-9,17,3,-5,7,3,7
3,11,10,-4,-2,6,-28,-8,7
-30,4,3,-15,-4,-5,-5,-1,7
4,-18,8,4,-1,0,51,10,7
-6,8,-17,-18,-2,-5,-89,-24,7
-4,-17,-15,-8,-5,-7,32,14,7
10,15,12,24,3,2,-11,-1,7
1,-17,-14,-41,-8,-4,-2,-4,7
-14,21,15,23,6,-2,3,4,7
8,-17,-5,-12,-4,-2,6,-1,7
-1,5,3,25,0,4,-33,-4,7
0,17,0,10,-2,1,18,8,7
0,-28,-4,-16,-3,-3,0,-5,7
-16,-10,-1,-2,0,-1,-11,-4,7
28,0,-5,-4,1,0,14,3,7
-2,14,1,7,-2,-3,-11,1,7
16,12,8,-2,-1,1,12,-1,7
7,4,-2,-6,-3,5,12,-3,7
-4,-19,-6,4,0,-3,-19,0,7
-3,-2,-1,1,2,3,-1,-6,7
17,11,5,-11,-1,-1,-12,4,7
-11,3,1,2,2,3,30,3,7
-1,-1,1,14,3,0,-3,-2,7
-2,-12,0,-18,1,-5,-31,-3,7
-6,9,-17,-17,-4,2,15,-3,7
-10,-32,16,13,1,-1,12,2,7
0,-1,2,14,-4,-8,-12,-5,7
12,5,-4,-20,-4,4,12,4,7
-10,-14,-10,6,-5,-8,-13,-2,7
7,2,-5,-7,0,-3,4,4,7
-10,-7,-4,-9,0,0,-5,-2,7
1,-9,3,18,6,1,16,-2,7
1,6,12,10,1,-1,-19,-3,7
-4,5,-17,-6,-5,-1,-8,-1,7
3,-3,3,-5,4,11,22,2,7
-8,7,-8,-15,-4,-3,-21,-5,7
-2,6,16,8,2,5,17,2,7
-2,-12,-5,0,-3,-9,25,2,7
-5,-3,0,4,0,-4,-49,-8,7
8,-16,-4,-4,-2,-4,-16,-3,7
3,24,-5,-6,-3,1,11,1,7
8,-2,-2,16,7,-1,2,2,7
3,4,-4,0,-9,-3,6,-1,7
-5,-21,2,-19,-4,-7,-18,1,7
-13,-17,-2,-10,4,6,24,4,7
4,29,6,11,-2,-3,6,9,7
-6,1,-2,-12,0,1,17,-9,7
11,7,12,43,8,1,-17,-9,7
-5,4,-3,-13,-4,-1,-2,3,7
1,-8,-5,-15,-9,1,-13,3,7
-5,-1,2,-12,-1,-3,9,-1,7
-4,16,6,11,-2,-3,38,5,7
-2,-15,-9,1,2,-3,-61,-13,7
-13,17,7,9,9,5,9,3,7
34,6,2,-12,-6,-5,-19,-4,7
-20,-10,-15,-5,-3,2,21,-3,7
8,6,8,-1,-5,-7,1,9,7
2,-25,-3,3,3,11,17,-3,7
-3,10,4,2,0,2,16,4,7
-6,9,1,9,3,0,-10,-2,7
-33,-6,-7,-6,-3,-3,-13,-9,7
31,2,2,-7,-3,-4,-22,-3,7
-4,-14,-1,3,-3,-1,14,3,7
7,10,0,2,3,2,-5,-1,7
-4,-18,5,12,-6,-4,31,10,7
1,2,3,-27,-5,1,-33,-11,7
-7,-15,-16,2,2,-4,-11,-1,7
-5,0,-1,-10,-7,-2,-1,1,7
7,0,-3,2,-1,-3,24,7,7
-2,-22,-10,11,7,7,-7,-2,7
3,15,8,9,-1,-8,-29,-4,7
-8,-9,6,-8,-5,6,9,4,7
8,16,-3,-2,-6,-4,6,5,7
-21,-36,-7,-6,1,-2,0,-9,7
-23,-4,-9,-2,0,5,-7,-7,7
-5,1,-1,-1,-6,-8,-17,-3,7
7,-8,3,-27,-7,-5,18,6,7
1,19,12,13,3,4,-17,-3,7
4,-21,-22,-16,-5,-1,7,8,7
-11,27,3,8,2,-2,-1,-2,7
24,-12,2,1,-3,1,5,3,7
-36,6,-4,1,1,-1,-1,-6,7
-23,-4,8,4,0,4,18,4,7
17,3,3,-1,-1,0,2,2,7
-4,0,0,-1,1,-3,-18,-1,7
-14,-3,-8,-2,-2,-5,21,4,7
5,-2,12,23,5,0,10,2,7
5,23,-6,-7,7,5,-23,-4,7
3,3,3,2,1,5,-8,-3,7
-1,0,7,-8,-8,-11,-3,-2,7
5,-16,-6,-32,-3,2,3,3,7
0,-12,-1,9,2,1,14,3,7
5,13,5,25,11,4,12,-4,7
13,13,-4,-14,-7,-5,8,10,7
-15,20,6,15,2,-1,-30,-23,7
36,11,0,-10,-1,-2,4,5,7
-17,-12,6,2,2,2,-13,0,7
17,14,-6,25,-1,-7,2,-3,7
-20,-15,-9,-26,-5,-4,8,4,7
-12,-4,-4,0,1,9,13,1,7
-2,-11,-8,-10,-3,0,-2,-8,7
-25,20,15,26,5,2,1,2,7
15,9,5,-11,3,3,7,1,7
-10,-18,-7,-5,-5,-7,-1,-2,7
-5,-7,3,5,-3,0,-12,-1,7
-3,-3,-4,-13,3,8,16,1,7
12,1,-2,11,2,0,4,1,7
-3,-4,21,-6,-1,-7,-4,-1,7
4,29,-17,-10,-3,-2,2,1,7
-13,-15,-7,-3,-5,-5,-11,-3,7
3,-12,-4,-7,0,1,12,8,7
9,2,8,17,2,-3,-5,7,7
-7,-4,7,17,0,2,1,-12,7
30,13,-7,-13,-6,-9,-16,-4,7
1,-1,4,-12,-4,5,23,10,7
-25,-11,-10,4,-2,2,7,-5,7
6,-8,-2,9,2,0,-22,-7,7
2,-15,-14,-9,-2,-4,-14,1,7
4,27,19,13,-1,-4,12,5,7
-1,10,0,-11,-2,-1,-12,-6,7
0,-2,-7,-1,1,2,1,2,7
-1,-10,-7,-3,-1,1,15,-3,7
12,-2,4,15,4,-3,-8,0,7
-3,10,-2,-1,-5,-1,-5,1,7
4,0,-9,-1,-2,1,2,1,7
40,-1,11,-36,-4,-5,-23,5,7
-14,-8,-17,12,3,5,10,-12,7
19,8,7,-20,-3,-2,-6,-4,7
-15,-21,5,7,-1,-3,12,1,7
-6,-5,5,7,2,1,-14,0,7
-6,2,-6,8,-2,-3,-11,-3,7
13,15,8,-5,1,2,-12,-1,7
-6,4,-9,-18,-7,-4,-1,-6,7
0,13,3,6,0,2,13,2,7
-19,-2,1,-2,-3,-7,-11,1,7
-11,-32,-14,6,1,1,24,3,7
9,5,9,2,5,-1,-20,-1,7
0,21,15,24,2,-2,-5,-9,7
-2,-10,-18,-26,-7,-2,-11,4,7
4,-7,-6,-9,-6,-4,23,4,7
-3,1,0,-7,-2,3,-10,6,7
3,-12,-2,15,3,4,11,1,7
5,-3,7,10,3,0,7,-3,7
-12,-7,-4,17,2,-3,-14,-4,7
-1,-21,2,-11,-1,1,22,2,7
-12,19,-13,-24,-6,-10,-5,-5,7
-20,6,6,5,-6,-2,-25,-3,7
-8,-10,-14,-7,0,1,-9,-5,7
3,-9,6,28,4,-3,14,2,7
4,-7,-2,-35,-3,4,3,2,7
2,1,5,-8,3,1,8,4,7
2,-7,-3,7,-5,-4,6,-2,7
-1,10,2,8,4,-1,-57,-11,7
-39,-5,-8,-10,-4,4,21,-4,7
12,-8,-3,7,0,5,0,-1,7
7,1,8,18,2,-5,-6,-1,7
8,9,-7,-47,-6,-6,27,10,7
3,-4,-2,18,5,7,-24,-6,7
12,0,-10,0,-2,-6,1,3,7
-13,-6,3,16,2,4,2,-3,7
20,3,9,-38,-7,-2,21,8,7
-14,2,4,16,8,0,-8,-8,7
4,-12,9,12,1,-5,-7,-3,7
12,1,4,18,4,10,6,-3,7
-9,-8,-34,-20,-5,-7,-14,-4,7
1,17,8,-40,-17,1,59,20,7
24,9,19,45,9,1,-34,-2,7
-3,-13,-17,-67,-11,-3,5,-9,7
-4,-26,-3,27,3,-1,-11,-4,7
-15,-10,-3,19,3,-6,-24,-4,7
22,15,-8,-25,-6,0,35,4,7
3,-5,8,14,4,-3,-30,-4,7
-7,5,0,3,-3,0,20,4,7
5,-20,0,6,1,-1,-4,-5,7
-20,11,1,1,-1,0,5,-4,7
-11,-2,-1,-8,-4,-2,3,10,7
-1,18,7,9,1,-3,-5,-3,7
23,1,15,29,6,7,-5,3,7
-25,3,-18,-32,-2,-1,49,8,7
8,-8,-8,-22,-6,-1,-55,-11,7
10,15,16,28,7,2,16,11,7
6,28,5,1,3,10,20,-9,7
29,-14,-2,12,-2,-1,11,7,7
2,23,-4,-32,-11,-8,-44,-5,7
-5,-28,-4,3,0,7,30,3,7
-7,-14,-9,2,-3,-10,-34,-7,7
-7,-2,2,1,-2,0,3,1,7
-10,5,4,26,9,-4,-1,0,7
4,42,6,-17,-5,7,3,-1,7
-5,-29,-18,-13,-5,-5,23,4,7
5,6,10,6,1,-2,-11,2,7
-10,-15,-5,11,2,0,-22,0,7
5,2,9,3,3,5,9,-10,7
-2,12,-4,-26,0,14,48,16,7
-13,-15,3,-4,-1,-2,-48,-13,7
-2,-8,-5,8,3,3,26,2,7
-7,4,4,24,0,5,28,2,7
32,8,2,-7,-3,-13,-59,-10,7
-6,-14,-3,14,0,0,-3,-6,7
7,29,3,-35,-12,-2,17,5,7
1,-3,4,-9,1,0,8,7,7
-7,-45,-11,6,-2,-7,-27,-4,7
-9,7,-7,-6,1,2,-7,-3,7
-9,-32,0,17,12,3,14,4,7
-2,27,7,2,-4,-8,-9,-1,7
-3,-13,-11,-3,-8,-4,-21,-10,7
-8,16,4,-2,-1,-1,16,-7,7
-9,-13,-8,-5,-7,-2,-6,-3,7
-20,-17,-8,-4,0,3,-26,-5,7
3,7,9,23,3,-3,-11,4,7
5,2,-6,-40,-6,7,36,8,7
7,0,-4,-3,0,-12,-2,1,7
9,4,-6,17,2,-1,-19,-5,7
-15,-11,0,-15,-4,-2,11,1,7
-20,-1,5,5,-1,-4,-15,7,7
22,10,6,7,-2,1,8,-2,7
8,-17,-11,-10,-8,-2,-6,-3,7
-17,0,-2,12,3,0,-6,3,7
15,-3,2,18,11,8,23,4,7
-11,10,2,-5,-7,-3,4,-2,7
-18,-9,-6,-15,-4,-4,-24,-6,7
22,31,8,-7,-2,-4,22,9,7
-6,-10,0,3,3,-1,-36,-2,7
-9,5,4,23,7,6,52,-2,7
-13,-6,-15,-15,-4,-10,-29,-6,7
8,-10,6,-15,-5,-1,-1,6,7
0,6,-4,1,0,-1,-13,-9,7
5,-7,-12,8,4,-3,-24,-7,7
13,7,11,0,1,1,21,10,7
-3,-1,-1,9,4,-4,-4,0,7
5,-6,-1,7,-4,-5,-5,3,7
-6,4,-3,-22,-6,2,18,9,7
-18,3,0,-7,-1,6,3,-9,7
20,18,6,11,9,9,22,4,7
1,3,1,0,-5,0,-32,-5,7
-12,-10,1,-2,0,0,12,1,7
-15,-17,-5,1,5,0,-8,-2,7
9,4,7,6,3,5,16,1,7
8,1,-5,-4,-4,-4,-3,-1,7
-2,8,-2,-12,0,4,-11,2,7
10,10,8,15,-2,-4,9,6,7
-1,-1,-5,-9,-2,-1,-20,-9,7
-8,-6,7,19,5,-4,-1,1,7
-1,9,5,19,2,-4,-10,3,7
6,-18,-7,-16,-4,11,20,-4,7
-15,9,-3,-22,-5,-8,10,4,7
-6,5,-7,-18,-4,2,-21,-7,7
2,-14,8,6,-2,-4,9,4,7
-16,-2,6,29,7,-6,-41,-6,7
31,-1,-2,12,2,1,14,6,7
-9,7,-6,-17,-4,4,16,-3,7
-2,4,12,3,3,2,-8,3,7
12,-15,-17,-2,1,2,1,-9,7
-9,-4,-1,-8,-8,-3,-6,3,7
12,30,4,13,0,-6,6,3,7
-14,-22,2,-20,-2,4,16,2,7
-18,7,-7,-23,-5,-4,1,0,7
0,-1,3,4,5,0,-9,-3,7
-1,2,-6,-2,-5,2,23,-2,7
29,7,5,15,2,1,-24,-6,7
-7,15,4,-2,2,0,25,-2,7
-35,-16,-8,3,-9,-5,-27,-13,7
16,-20,-4,-16,-4,-8,-13,8,7
0,15,-2,2,3,2,43,3,7
12,13,3,0,-6,-10,-66,-5,7
-15,-31,-1,6,2,7,15,1,7
4,4,6,1,1,0,17,4,7
4,-15,-14,6,2,-2,-12,-1,7
14,13,-4,-4,0,7,12,-6,7
-2,14,9,0,-1,-8,-19,3,7
-12,-21,-4,-1,-6,-5,11,2,7
-19,8,7,-6,-4,0,-3,-8,7
11,-17,-7,-3,1,-2,-8,5,7
-6,18,-3,10,3,5,-5,-6,7
8,-12,1,-5,9,5,10,5,7
5,2,6,1,-3,3,11,2,7
-17,13,5,5,-2,-5,3,8,7
14,-40,-12,-11,-2,-2,-2,2,7
-12,9,3,9,-1,4,-4,-4,7
-1,-11,-14,1,-1,-2,-7,-4,7
10,1,9,-5,-3,-3,21,5,7
-15,11,0,12,3,7,19,5,7
-2,3,0,9,4,5,17,-5,7
-7,-6,-12,-39,-15,-12,-37,-11,7
-3,-10,-1,-2,-5,-7,-1,8,7
0,3,1,6,1,5,27,6,7
-3,-7,-3,-3,3,1,-18,-7,7
2,8,-2,9,1,0,10,4,7
9,0,6,25,2,-1,-11,1,7
4,5,-6,1,6,10,43,-2,7
0,35,12,-12,-7,-4,-25,0,7
6,-36,-18,-32,-12,-4,6,8,7
-53,-10,-3,-6,-4,-6,0,-21,7
8,-1,4,15,0,-6,-23,-2,7
3,-6,-3,1,0,-1,-2,2,7
19,22,7,12,7,2,-9,-2,7
8,-18,1,18,5,3,32,6,7
11,39,0,-31,-9,-9,-19,-5,7
1,-28,-3,-11,-4,4,28,6,7
-9,-5,-4,3,-2,-3,-44,-8,7
8,-1,-2,1,3,0,5,5,7
-2,-3,1,4,1,-2,-12,-5,7
6,1,-2,-7,-3,-7,-7,4,7
-4,2,2,11,3,4,17,-1,7
30,15,10,8,3,1,-15,-3,7
5,-15,-11,-20,-8,0,9,2,7
-14,-8,-4,-9,-4,-8,8,-3,7
-5,-12,-3,6,4,3,-4,1,7
3,11,1,-2,-4,2,-15,-6,7
2,7,8,13,2,-6,-6,-2,7
1,-11,7,2,-2,3,6,3,7
0,10,-5,-5,0,-1,10,-1,7
2,-8,-6,-19,-2,-3,-14,5,7
-2,-3,0,8,0,3,14,2,7
-13,-5,-3,7,5,0,-17,-7,7
8,0,1,12,2,-1,17,-1,7
-6,6,5,24,0,0,17,3,7
-6,3,-5,-41,-8,-2,-30,-7,7
3,22,1,1,-2,-3,22,3,7
-1,-22,-4,-15,-3,-3,-37,-4,7
3,-1,-4,-2,-1,-1,7,-5,7
-4,-25,-5,7,-5,-6,-4,-2,7
7,14,0,3,2,1,3,3,7
-32,-15,0,18,5,0,-7,-7,7
33,-11,-9,-25,-3,6,1,-2,7
4,27,13,6,-1,-4,2,3,7
12,1,-5,0,-2,-4,-22,2,7
-1,-2,-4,-6,-3,-1,31,7,7
-32,-6,-4,-3,1,-3,-9,1,7
14,-8,-2,8,7,5,10,0,7
6,-8,-8,-4,-1,2,15,-5,7
8,21,12,11,-2,0,-2,1,7
-4,4,-4,-9,-1,-3,-10,1,7
-9,0,-1,2,-2,-2,7,0,7
-13,-10,-8,-3,0,-2,-14,-6,7
6,14,1,-4,-2,0,5,3,7
-1,-10,2,7,0,0,1,0,7
-6,0,0,-10,-1,1,-2,-1,7
0,-4,0,3,1,5,3,-3,7
1,-1,11,12,0,-2,-6,0,7
11,5,-1,-6,1,0,0,2,7
-8,11,-2,-20,-5,-1,-9,-3,7
-1,0,3,-8,-6,0,7,4,7
7,12,-9,0,8,2,3,0,7
-26,-26,-4,5,-4,0,-2,-2,7
-7,-2,-7,20,9,-1,13,-1,7
7,-6,1,-18,-8,-6,-39,-3,7
1,6,-6,-2,0,-1,20,5,7
2,7,4,3,5,7,-9,0,7
6,-27,2,-12,-7,-9,-11,-1,7
-10,-2,-12,8,2,7,26,5,7
-1,4,3,1,-2,-6,-26,-9,7
-6,7,-4,-9,-2,-2,-10,-7,7
7,1,0,7,1,1,-1,0,7
-1,6,6,18,5,1,-6,0,7
-9,-12,-4,-10,-4,-2,7,0,7
9,6,0,-3,-2,-1,13,5,7
-12,2,-1,5,-3,-5,-26,-4,7
-7,-15,-4,3,2,4,18,-4,7
2,26,7,4,-2,3,-11,2,7
6,3,2,6,-1,-4,10,1,7
-3,7,5,-10,1,4,1,1,7
0,-35,-19,-1,-6,-13,-20,-2,7
-5,-12,4,-10,1,3,8,2,7
0,4,2,8,0,0,13,-1,7
-1,-1,8,12,4,3,-3,2,7
14,33,7,-5,6,2,0,2,7
-9,-10,-7,0,-7,-7,13,4,7
3,12,4,1,2,6,-12,-3,7
-8,-2,-11,0,1,1,-4,-5,7
2,-2,7,-7,0,-4,-8,-2,7
6,5,-1,-4,-1,1,0,2,7
-5,-7,-2,-4,-2,-9,8,9,7
2,-4,3,23,5,13,17,4,7
-5,9,-7,-27,-4,1,19,-4,7
-1,0,4,4,-3,-7,-35,-7,7
-2,-11,0,-4,0,0,1,3,7
5,13,0,3,-1,1,15,2,7
2,-17,-6,-2,1,1,-19,1,7
-11,5,8,11,-1,-1,-4,-7,7
1,-7,-14,-15,-4,-2,11,1,7
24,-13,5,3,1,-7,-11,-1,7
-10,9,2,1,3,1,5,3,7
6,-1,-12,-7,-6,-3,11,5,7
1,1,6,5,0,1,-5,2,7
-9,4,-1,-4,0,-1,8,3,7
-7,-17,-2,3,-5,1,11,-2,7
1,0,6,6,4,2,-24,-1,7
-4,-8,-6,-4,-3,-8,-7,0,7
-9,2,-6,-9,-4,5,36,-3,7
10,6,9,-1,0,-2,-46,-4,7
-3,-2,-3,1,-3,1,55,5,7
2,-4,-4,-21,-4,-5,-26,-3,7
-23,-7,-1,2,0,2,-32,-13,7
14,20,4,9,3,-3,29,5,7
-1,-25,-5,-4,3,1,-22,-1,7
3,6,6,23,1,4,69,5,7
6,6,7,-18,-1,-2,-26,-9,7
-13,-5,-2,-8,-9,-8,-38,-11,7
-4,6,-14,-18,-1,0,-3,1,7
6,-14,-15,-2,1,-3,13,1,7
-7,2,4,-3,-5,-1,1,6,7
-9,9,5,-3,-1,1,15,3,7
7,1,8,2,0,-4,-7,0,7
17,7,0,11,4,5,-12,-3,7
16,9,-7,6,-2,-4,11,2,7
-5,3,-3,-18,-7,-3,-18,0,7
-7,-29,-3,3,0,6,18,0,7
-32,12,14,7,5,1,-14,2,7
1,10,-19,-9,-7,-5,-5,-8,7
-19,-30,-5,13,0,-6,-3,1,7
-4,16,0,-15,-6,-2,18,2,7
5,-3,4,5,4,6,-36,-9,7
1,-15,-1,-13,2,2,8,7,7
1,25,10,17,4,4,-7,-8,7
5,3,-9,-10,-6,-5,7,0,7
-11,-5,-2,-2,-8,-7,-10,-1,7
-2,0,2,2,0,-2,2,5,7
-7,-33,-8,0,2,-4,6,-3,7
11,10,5,10,4,4,-12,-3,7
-1,1,3,-4,-5,1,57,7,7
-9,-5,-4,9,0,-2,-61,-11,7
2,7,3,-4,-1,4,13,0,7
3,-2,4,11,0,-4,-6,-3,7
2,19,4,-26,0,-3,-17,-6,7
1,-13,-14,-6,-1,-2,33,3,7
-12,-1,-2,4,-1,-3,-31,5,7
5,-9,-1,-8,-6,-5,-5,-3,7
-10,-13,-1,16,3,6,6,1,7
-7,-8,9,7,0,1,-6,-2,7
-4,7,-3,-14,-5,-5,7,4,7
17,16,-1,13,2,1,15,2,7
-10,-17,2,4,-1,-7,7,1,7
-39,-6,-3,-20,-3,-4,-43,-4,7
-10,-2,-2,10,1,-4,-7,-5,7
-5,0,3,-13,0,7,31,10,7
18,5,0,5,-5,-3,-22,-15,7
11,16,-1,8,3,-1,33,10,7
-11,-20,-2,-1,-1,-1,11,2,7
-16,2,2,4,1,-3,-41,-6,7
3,1,-4,-9,-3,-6,6,4,7
-3,-17,-7,0,-3,-4,8,1,7
17,9,2,4,1,-1,-14,-4,7
9,1,1,1,2,2,9,-3,7
1,1,-1,-4,0,4,-2,-1,7
12,-4,0,23,3,-2,43,4,7
-12,16,9,-4,-4,4,-39,-12,7
-4,-4,-5,-21,-5,0,-23,1,7
-1,6,-10,-16,-9,-8,-8,3,7
7,-4,-5,4,3,-1,-3,8,7
-9,5,11,16,6,9,37,-2,7
-27,-7,-5,14,1,-1,17,-6,7
12,5,-3,-10,-1,1,-18,-5,7
-2,0,5,7,0,-5,7,0,7
35,13,-9,-5,-2,-3,7,10,7
-19,-10,4,-4,-2,-9,-24,-3,7
-1,0,2,7,-1,9,50,7,7
-8,-10,-3,-1,2,-5,-75,-13,7
6,10,-2,-9,1,-1,12,4,7
10,-18,-4,14,0,-1,-8,-5,7
6,22,7,-18,-3,-2,11,5,7
7,-15,4,-8,-8,-2,12,1,7
-15,-13,-16,-10,-1,1,3,1,7
7,-7,1,15,-2,-5,-4,-3,7
-7,7,0,6,4,4,0,-3,7
10,5,3,-32,-4,2,3,-1,7
5,0,4,11,1,0,4,1,7
3,-3,2,-4,2,0,9,2,7
2,-2,-8,5,-3,-7,-20,-2,7
0,6,-8,-3,-4,6,2,-5,7
11,-12,9,3,-2,4,31,-1,7
3,6,0,3,1,-2,-13,-2,7
-5,3,2,-10,0,-4,-15,-3,7
-13,-7,-3,8,3,-1,-3,0,7
-2,-10,-12,-16,-3,-1,20,1,7
4,2,-1,-8,-3,7,-11,2,7
9,-9,15,32,2,3,-1,-2,7
-5,1,-10,-20,-5,-11,-29,-9,7
0,6,-1,2,3,3,-5,2,7
8,10,1,-16,-2,-3,13,6,7
-4,-15,-10,1,2,-1,-24,-7,7
1,18,6,11,-2,2,17,4,7
5,-8,8,6,0,2,-5,-1,7
-6,-22,-7,-5,2,-1,-11,-1,7
6,16,2,-5,-2,3,9,-2,7
-26,-20,-8,4,4,2,9,2,7
9,13,5,-6,-6,-6,14,1,7
-11,-4,-3,0,-1,2,-11,-2,7
1,-10,-5,11,0,-4,-7,-3,7
7,-10,18,8,4,2,17,0,7
-21,10,-17,-15,2,-4,-12,-1,7
1,5,5,5,0,2,6,4,7
0,0,3,1,-1,0,-9,-2,7
6,10,2,13,-2,-5,-28,-6,7
1,-13,2,9,0,3,13,0,7
7,15,4,-23,-2,-4,28,7,7
-2,-7,-9,-2,1,2,-34,-4,7
2,27,10,5,0,6,26,8,7
15,-10,-3,-8,-3,-2,-3,-2,7
-10,-17,-9,-2,-5,-4,-18,-8,7
-11,-12,-5,-12,-3,3,44,8,7
9,-4,1,8,3,0,-25,-9,7
-4,4,-10,8,2,-5,-9,0,7
3,8,1,-9,0,4,7,-3,7
-4,-4,-2,-6,-3,-5,-17,-6,7
8,0,0,8,1,1,27,1,7
-4,-4,15,18,5,-1,-29,-6,7
-5,5,-15,-8,-9,-5,9,5,7
0,-2,4,3,3,0,-10,1,7
-10,5,-5,-26,-5,-4,-1,5,7
7,-3,-2,13,1,4,7,2,7
-1,9,15,13,3,1,-1,0,7
10,38,-4,-5,-6,-6,19,8,7
12,-17,-10,-4,3,0,-6,0,7
-12,-6,7,-1,-5,-5,-19,-3,7
-18,-7,-5,4,2,1,16,-2,7
-1,-1,0,-5,-3,-11,6,6,7
11,-7,-1,8,6,14,11,-7,7
-8,13,6,-11,-4,2,14,2,7
6,10,5,11,-1,1,-14,-3,7
-5,-18,-11,-13,0,1,8,3,7
0,-3,1,-3,-3,-8,-1,7,7
-5,-12,-7,-1,-2,-4,-9,-5,7
2,0,0,16,2,1,3,-4,7
-4,-4,7,10,4,4,-3,-2,7
-1,12,0,-8,-6,-2,5,2,7
5,7,-7,-17,-8,-3,0,0,7
5,3,-7,-11,0,-2,-2,1,7
-1,-13,-2,10,1,0,5,-1,7
-4,5,-2,3,2,-2,-34,-10,7
7,4,5,5,1,-1,7,1,7
-9,-32,-5,-2,3,0,9,-4,7
-7,-4,1,-8,-4,-1,-21,-3,7
3,4,-1,7,-1,2,23,4,7
1,13,0,-13,-2,-1,-7,2,7
-15,-12,-2,-1,0,-1,2,3,7
4,-1,2,3,1,0,-3,0,7
-14,-9,-3,-2,-3,-3,-3,-2,7
1,-8,3,30,5,1,3,-3,7
9,20,-10,-32,-4,1,-7,0,7
3,-4,9,2,-4,0,20,6,7
7,14,8,6,-1,1,-24,-8,7
-4,-11,-13,-7,2,6,25,-1,7
-7,-4,6,7,-3,-1,-30,-6,7
3,9,-3,6,4,4,-5,-3,7
7,-24,-3,-7,2,0,20,6,7
1,-7,-13,-14,-5,-5,4,0,7
37,17,15,1,-4,1,0,0,7
-31,8,-6,4,1,-1,2,-2,7
-11,1,3,-21,-2,0,6,3,7
3,-18,-9,0,2,-1,-16,-1,7
10,15,0,-4,-3,-3,11,5,7
10,-10,4,4,-4,-4,-7,-8,7
-5,11,-3,13,3,4,13,-3,7
0,-19,-1,-1,-1,-1,-17,1,7
1,27,10,7,-1,-2,-7,-7,7
1,-6,3,-1,0,-3,-6,-8,7
-11,-5,-17,-29,-6,-2,-2,5,7
19,-1,3,-1,-1,-1,8,6,7
1,2,0,9,3,1,5,0,7
0,-5,-4,-1,2,2,-4,-2,7
0,-6,5,6,1,-3,1,1,7
-4,11,6,-6,-4,-1,-6,0,7
4,-5,-6,14,3,1,14,3,7
-14,-10,-6,5,-1,0,-14,-7,7
3,13,-2,-26,0,3,6,7,7
0,7,1,5,-1,-1,-9,-5,7
-8,-14,-1,0,-2,-3,-19,-2,7
3,-2,-15,-1,1,3,29,6,7
0,1,10,22,2,-3,-40,-10,7
0,11,4,7,2,1,17,4,7
-3,-15,-21,-30,-6,-11,-25,-8,7
2,-2,9,1,-1,-2,-2,0,7
-11,-5,-11,0,-2,-1,5,0,7
8,19,9,-3,-2,-1,5,-1,7
-9,-16,6,11,2,-2,11,6,7
-15,-6,-6,-15,-3,1,1,1,7
15,-4,3,8,1,1,-5,-4,7
-4,6,-3,19,5,-5,-7,-1,7
-6,-4,7,-16,-5,3,28,3,7
8,16,-2,-21,-3,-4,-43,-3,7
-7,-27,3,5,-4,-4,9,1,7
-15,-14,-7,-7,-2,-2,10,4,7
-3,-4,-1,20,6,6,-30,-10,7
9,11,5,-13,0,1,11,7,7
-1,-7,-10,-1,-2,3,19,-3,7
-7,-1,-8,-11,-5,-2,-11,-2,7
5,2,3,6,0,-5,-2,0,7
3,-1,7,15,2,-1,-8,-2,7
1,12,-1,-1,2,0,-2,0,7
-10,-3,5,-2,2,-1,8,0,7
2,11,-3,3,-3,2,2,2,7
-24,-10,-6,-8,0,-1,-5,-3,7
7,-2,2,3,-5,-7,2,5,7
-3,-3,1,-15,-2,5,18,-10,7
2,5,1,3,4,-3,-36,-1,7
4,-13,-1,36,3,1,15,1,7
-4,17,-4,-33,-7,-3,10,5,7
0,-17,-3,1,-4,-2,-23,-4,7
-8,7,13,11,-2,-7,8,-1,7
2,-20,-24,-22,-4,4,12,2,7
4,4,4,12,5,6,-4,-4,7
2,-2,3,4,1,0,2,3,7
2,1,-9,-11,-3,-4,14,2,7
14,4,8,14,4,-1,-4,2,7
-18,-3,-5,-4,-5,0,10,-6,7
-4,-1,-4,-21,-5,-4,-14,-5,7
3,9,5,18,-1,0,8,4,7
4,3,5,-11,-2,-2,-2,0,7
-1,-4,-3,-4,3,-1,-3,3,7
-3,1,-6,4,1,-1,2,0,7
4,-18,-7,1,-3,2,10,3,7
-1,11,-1,-14,-3,1,-6,-4,7
20,-12,-3,11,-1,-5,-16,-4,7
-42,-1,-4,-5,0,-2,0,-2,7
12,6,3,-5,2,1,-2,2,7
-3,1,3,-5,-2,-2,8,3,7
8,5,3,14,1,-3,-2,-3,7
8,-1,1,10,2,-2,-10,4,7
-2,1,-13,-23,-3,4,18,-1,7
13,10,7,3,-1,-3,9,5,7
-27,-23,-6,-4,-5,-5,-28,-11,7
5,7,1,-2,-1,3,-3,7,7
16,-19,-4,0,-2,0,-11,-5,7
5,0,6,5,3,4,13,-1,7
-7,14,0,23,1,-5,-1,2,7
-5,-11,-8,-25,-5,1,7,2,7
-6,6,2,-1,3,1,-5,0,7
2,-1,0,5,-3,0,1,0,7
6,4,7,-5,2,3,6,3,7
3,3,1,14,5,1,-2,-4,7
-3,-4,-10,-12,-4,2,-1,-1,7
-3,-4,0,5,-2,-5,4,3,7
1,19,2,4,1,6,-2,0,7
14,-7,7,-2,-1,5,-2,-5,7
-6,7,5,-1,1,3,8,2,7
-2,-3,-9,-4,-4,-11,-5,-6,7
-8,-9,0,0,0,1,-38,-8,7
8,-1,-1,3,-4,-3,9,0,7
19,26,6,4,4,0,3,2,7
8,-6,-1,7,-4,-1,2,-1,7
-22,-9,-12,-39,-8,-7,2,3,7
3,-5,-3,7,-2,-2,-9,0,7
-19,-12,-3,1,2,-1,-2,-5,7
17,0,2,12,8,8,30,9,7
2,18,6,-12,-4,-3,-43,-13,7
-9,6,5,11,2,5,13,2,7
-2,0,-12,-12,-4,0,7,0,7
-7,-9,8,15,-2,-4,-16,-6,7
7,-24,-10,-12,-1,-5,61,22,7
0,9,4,-2,3,17,-45,-21,7
9,11,7,9,2,0,-3,-5,7
-19,-5,-7,-12,-6,-17,-28,-5,7
-15,-6,3,18,4,19,31,0,7
-2,3,-6,-1,-2,-17,-48,-8,7
10,-16,4,2,-1,4,33,10,7
-14,-1,-8,-18,-2,3,-22,-4,7
10,14,12,10,1,-4,30,16,7
5,2,14,12,2,1,26,3,7
3,10,-19,-6,-3,2,-22,-6,7
5,5,-9,-16,-9,-8,3,1,7
3,-3,7,2,1,-1,-13,-3,7
-4,-3,-5,-3,-2,-2,5,5,7
-9,-10,-1,-9,-2,-6,-4,-3,7
-6,8,2,4,5,7,-7,0,7
5,0,-5,3,1,-1,-2,-6,7
8,-3,1,2,0,0,2,0,7
-22,-13,2,1,-6,-9,5,2,7
-2,-1,-3,-2,3,6,3,-5,7
4,-3,-1,-2,-1,4,-9,-1,7
5,5,-1,-4,0,-7,1,2,7
-2,-6,1,4,5,2,3,4,7
-5,1,2,-3,-3,0,-10,-3,7
2,3,1,3,-3,1,15,-7,7
1,2,-1,-1,-4,-1,-13,2,7
-1,-3,1,0,-1,0,3,2,7
-2,-6,-1,6,2,2,4,-3,7
8,6,-5,2,2,-4,7,4,7
-11,-7,4,5,0,-2,15,4,7
-7,-7,-6,-26,-6,-4,-15,-5,7
9,16,4,-18,-4,1,5,4,7
2,-7,-3,6,0,-10,-26,-1,7
5,-22,5,19,0,12,63,4,7
18,37,5,6,5,-8,-40,-4,7
0,-1,-4,-7,-4,3,-22,-13,7
-11,0,-6,-3,-2,-5,-11,-2,7
1,-1,-2,5,4,-1,0,3,7
2,-3,7,-5,-1,5,25,5,7
7,-2,12,16,3,-2,4,2,7
-7,-6,-8,-9,-4,0,14,3,7
4,2,-12,-11,-3,-9,-35,4,7
-9,-2,-1,11,-1,6,39,-2,7
2,3,5,7,5,5,-20,2,7
5,-9,-5,-13,-4,3,-10,-4,7
15,2,-5,-4,-1,0,5,-2,7
-11,-4,-6,-3,-4,-12,2,2,7
9,-13,-3,13,-2,5,-18,7,7
31,-2,5,1,3,10,86,5,7
-26,-2,2,-2,-2,-12,-93,-31,7
3,8,1,4,5,5,-25,3,7
-1,-6,-9,-13,-4,-5,35,8,7
1,10,9,7,0,-2,-7,15,7
7,-2,0,-7,0,4,25,5,7
-1,-7,5,17,3,-1,-1,-4,7
-11,-8,-4,2,-1,-6,2,-2,7
-17,13,-3,-14,-2,1,-18,-7,7
6,-10,-7,12,-2,0,21,2,7
-3,1,1,2,0,0,-13,-4,7
2,1,-4,-11,2,4,7,-4,7
8,17,8,12,4,-1,-15,0,7
-10,4,-5,-9,-5,-4,10,2,7
-14,-19,-3,-4,-4,0,14,5,7
-7,-3,-4,-10,-6,-10,-39,-14,7
-10,-8,1,8,0,3,-2,-4,7
3,10,0,-8,-1,-3,2,5,7
4,1,-5,-4,0,5,20,1,7
-5,6,5,22,4,-1,-4,-5,7
-5,-14,-1,-17,-8,-6,-13,-4,7
0,7,-1,17,2,-1,9,2,7
4,9,1,-35,-3,3,3,-3,7
-12,-11,-11,-25,-5,1,33,10,7
2,7,-3,4,-1,-2,-42,-6,7
1,-1,2,0,-1,5,9,1,7
6,12,7,25,4,-3,-4,1,7
5,5,1,-10,3,2,1,-2,7
-3,9,7,13,0,-4,12,3,7
-12,-11,-3,-5,-2,8,28,1,7
9,2,-4,5,-1,-3,-33,-5,7
4,-3,-1,-9,-2,1,7,4,7
-6,-10,1,6,1,-6,-5,1,7
10,5,4,-1,3,1,-5,-3,7
-8,-18,-10,7,-2,-2,14,-1,7
-2,8,11,-7,-1,-8,-24,-7,7
10,-10,-11,0,-2,-4,14,6,7
12,14,3,-2,0,1,10,7,7
-17,-22,4,11,3,1,8,-6,7
5,13,2,20,-3,-6,-27,6,7
-11,-14,-18,-29,-10,0,0,-7,7
0,15,6,-22,-4,-4,-5,3,7
4,-1,0,3,1,-2,-3,-2,7
-4,-4,5,12,5,1,7,-2,7
-1,-3,1,10,4,-1,-2,-2,7
-4,-12,-3,6,0,2,6,-2,7
-4,-7,-7,-17,-5,-1,-20,-4,7
11,24,9,22,5,2,15,6,7
-13,1,12,3,1,2,-14,-7,7
-13,-12,-20,-31,-7,-8,1,2,7
26,-4,-1,1,-1,-4,-10,1,7
-4,-14,1,17,-3,0,29,1,7
3,4,-17,-7,3,3,-23,-3,7
-3,1,14,-7,-1,-3,-13,0,7
-8,-7,-7,-18,-1,4,7,1,7
-1,7,-5,-6,-3,5,0,-2,7
11,8,7,5,2,0,29,6,7
-1,-12,0,15,6,1,-16,-4,7
-20,-10,-6,-7,-8,-3,-11,-8,7
-4,0,1,-6,-1,0,2,0,7
-3,4,6,2,-3,-4,-5,1,7
8,9,-2,-3,-1,-2,7,3,7
11,7,1,8,-3,-5,-11,0,7
-24,-17,-6,7,-1,0,41,1,7
-6,-1,-10,-15,-1,5,-55,-9,7
7,4,0,1,0,-3,-4,0,7
11,11,18,15,4,4,20,9,7
-19,-12,-10,15,-1,-5,-11,-6,7
7,3,-5,-26,-4,-3,15,8,7
-13,20,-9,-15,-5,3,10,2,7
4,-9,-2,-9,1,-2,-5,0,7
-13,-34,-7,2,2,3,-18,-4,7
-6,3,7,17,-1,0,7,0,7
3,-3,0,2,-2,-3,-5,-2,7
-7,12,1,5,-3,-4,19,2,7
15,7,-1,-16,3,7,-25,-3,7
-7,-21,-2,10,3,-2,16,2,7
15,24,6,0,-1,-7,-8,-4,7
-10,2,2,-7,-4,3,-43,-8,7
-11,-14,3,-9,0,-4,6,-2,7
0,-3,-13,3,2,-1,8,3,7
-7,-1,0,16,3,2,-1,-2,7
-11,0,0,2,-2,0,12,-1,7
21,9,-6,-23,-5,-7,-12,0,7
-2,-15,6,7,-2,2,-5,-1,7
-14,-13,-5,-8,0,0,7,2,7
-5,2,-1,5,1,-2,-1,-3,7
5,9,-5,-10,-2,-1,-1,0,7
8,15,5,12,4,0,11,1,7
5,-7,3,12,3,0,-12,-2,7
4,-3,-3,-9,-2,-1,8,0,7
-10,-4,14,7,2,3,9,0,7
-1,7,-5,-9,-4,-5,-4,-3,7
-7,-12,0,2,-1,1,-17,-6,7
0,3,-4,-7,3,-2,-8,-1,7
11,1,-2,6,-1,-8,2,3,7
1,2,13,12,5,6,-1,-1,7
-1,7,-11,-25,-5,5,4,1,7
0,-1,2,13,-2,-4,21,6,7
-19,-5,-14,-22,-6,1,-15,-5,7
-5,-9,-10,-14,-4,-7,-1,0,7
0,1,1,12,3,0,0,0,7
4,2,0,3,2,1,-2,2,7
3,1,1,7,4,1,-3,-2,7
5,2,4,-17,-9,1,33,8,7
4,8,1,7,-1,1,-18,-13,7
-5,-14,-3,-7,-3,-4,-8,2,7
7,13,8,7,2,2,15,2,7
-6,-10,-6,2,1,2,-7,-2,7
4,-11,0,5,-3,-8,-14,-2,7
-1,8,2,9,6,7,18,-3,7
4,15,4,-20,-3,-5,-10,-1,7
-9,5,-1,0,-3,-2,2,3,7
9,-10,-3,-8,-4,-3,12,6,7
-4,-7,-2,5,-1,0,-8,0,7
3,5,-1,16,2,1,0,-1,7
4,2,2,2,3,1,-8,-3,7
-5,-20,8,9,8,10,29,7,7
7,13,-12,-14,-5,-8,-33,-7,7
-12,3,-1,-10,-6,0,-8,-5,7
4,-6,-3,-7,-8,-4,-17,-6,7
-4,-1,0,2,1,0,8,1,7
-3,-12,2,-1,1,-1,1,-2,7
0,-7,-4,-3,-2,-1,8,3,7
5,5,-1,12,3,-2,-11,-1,7
-3,0,-2,2,1,-2,30,0,7
4,11,16,14,3,4,-38,-10,7
0,3,-8,-43,-8,-1,4,1,7
-4,-10,1,-2,-2,-4,2,0,7
-3,-7,-9,-4,-3,-3,2,1,7
-4,-3,0,7,2,0,20,6,7
6,-9,-2,17,2,-4,3,1,7
22,31,17,20,8,9,-29,-11,7
-26,-28,-16,-33,-7,-1,-7,-2,7
-3,-13,-5,-5,-3,-3,13,2,7
9,18,7,5,-1,0,-1,-1,7
2,-14,-14,-8,-4,-5,32,5,7
6,14,14,23,0,-3,-39,-4,7
2,3,-1,-7,-1,5,13,2,7
16,-15,-7,-14,-1,1,-5,1,7
-7,-1,1,5,-3,-4,8,0,7
5,17,-6,-9,-2,-3,-14,-4,7
1,-8,0,3,-3,-4,7,5,7
7,-4,6,18,3,7,14,-2,7
-9,-9,-10,-23,-1,0,-9,0,7
0,17,10,4,-2,0,4,0,7
-11,-1,-6,-1,2,0,-2,-1,7
-4,-3,0,1,0,-5,2,5,7
1,-3,1,20,5,4,17,-1,7
-1,-2,0,-9,-6,-7,-23,-6,7
-14,5,8,-9,-2,0,-5,2,7
-6,-21,-17,-5,-1,2,21,2,7
-11,-10,2,-2,-2,-3,-33,-5,7
6,4,9,19,3,2,10,0,7
7,0,-4,10,2,-2,-9,-7,7
-5,2,-1,-19,-5,-1,2,0,7
5,22,8,1,-1,-2,11,4,7
6,-6,-4,-12,-2,-2,-2,-1,7
-5,-13,-6,1,-1,2,7,-1,7
-15,-4,0,12,0,-4,-14,-4,7
4,0,-1,0,1,1,-5,0,7
-7,-13,-7,1,-4,0,8,-2,7
10,14,0,4,2,-1,7,0,7
-1,6,7,-2,-4,-4,-8,3,7
-3,1,1,-5,-1,1,5,2,7
1,-3,0,0,1,-1,-18,3,7
-5,-2,-8,-5,-4,-2,-7,2,7
4,-5,2,9,4,-3,-3,1,7
-10,-7,-7,-6,-4,6,2,-1,7
-3,-3,-9,3,6,-3,-22,-16,7
11,18,7,5,-6,-4,4,7,7
1,4,6,-7,5,9,7,2,7
-4,-22,-5,-8,-4,0,9,-2,7
-6,7,-2,6,0,-1,16,15,7
-4,4,-1,7,4,-1,-22,-10,7
7,7,-4,-13,-8,-6,15,19,7
-5,5,13,14,2,-1,-25,-7,7
9,-5,-11,-9,-7,-1,-6,-13,7
-9,-7,-2,-9,5,9,-4,-10,7
13,8,2,6,-1,-4,5,4,7
2,2,0,1,0,-3,17,8,7
-9,-5,1,10,-2,-3,-6,-2,7
3,8,5,-22,-3,-1,11,11,7
24,1,-9,-5,1,0,-13,-7,7
-2,-12,0,1,0,-2,-4,-5,7
0,11,-1,0,0,2,20,4,7
-6,-46,-5,22,2,-1,2,-2,7
-9,8,2,-9,-1,4,-4,-1,7
0,17,-1,3,-6,-6,-7,-5,7
6,-11,-1,-13,-4,2,16,7,7
-13,-12,-4,3,-2,-2,5,2,7
3,14,3,0,-1,3,-5,-9,7
3,2,-4,-11,-5,-4,-7,3,7
-10,-24,-3,11,1,0,5,1,7
10,17,7,-9,-2,-3,-3,-2,7
-7,-7,-5,3,2,-6,-11,-7,7
6,16,-1,4,4,2,15,-4,7
3,2,8,-20,-4,-4,-29,18,7
-9,-23,-12,1,-1,-5,-7,-1,7
-9,4,6,2,1,3,15,3,7
12,4,-1,-7,0,3,16,-1,7
-2,5,0,11,1,-2,5,-1,7
-5,-2,-6,-13,-2,1,10,1,7
-9,-16,-3,13,-2,-4,-13,-6,7
-12,16,-1,0,1,-2,-4,0,7
13,1,5,-2,2,4,9,0,7
2,12,3,0,-3,-2,-8,-2,7
-15,-17,-2,9,-4,0,-4,-7,7
-10,-20,-1,-15,5,-4,-16,-3,7
6,18,-4,12,0,-3,11,-2,7
11,13,1,-17,-2,-1,6,-1,7
-11,-29,-10,7,1,2,-3,0,7
-1,-25,0,-8,-5,-5,-16,0,7
-9,14,4,-2,-2,-2,1,-2,7
2,-7,4,10,0,1,-5,2,7
25,25,7,-11,-1,4,19,-2,7
-25,-10,-11,7,0,1,-1,0,7
-2,-4,1,-10,-2,-1,-4,-3,7
5,0,-1,5,0,5,5,0,7
-4,1,1,6,0,2,-3,0,7
10,7,1,7,0,-7,2,2,7
7,-8,0,-3,3,10,15,3,7
-16,-5,-2,-2,-3,-5,-5,-1,7
4,3,-4,9,2,-5,-23,-9,7
-11,-8,-1,-19,-6,-3,-28,-1,7
-3,-8,-2,4,0,0,22,3,7
3,-4,-6,-1,3,1,-1,-4,7
-11,2,6,-10,-8,-1,5,-1,7
3,0,-8,-12,-6,0,-2,2,7
-3,2,12,13,3,-3,-12,-2,7
6,17,-7,-15,-1,-1,2,0,7
8,-5,-2,1,-3,3,8,0,7
-3,8,-5,4,2,0,17,2,7
-11,-10,-4,-2,1,2,1,-1,7
-4,-15,5,3,-5,-4,-23,-8,7
-5,-1,-3,-4,-1,-1,5,2,7
15,7,4,-2,-6,-2,15,-2,7
10,6,-2,11,5,-1,-25,-7,7
-13,-12,-8,-8,3,2,18,5,7
-4,-27,6,-5,-1,-3,-24,1,7
8,6,-2,8,2,2,28,6,7
2,4,2,-5,-2,-1,-16,-6,7
3,5,-1,-12,-3,3,-9,-1,7
-12,4,0,9,6,-1,17,2,7
-4,4,2,9,3,1,-8,-3,7
9,1,1,0,-4,-1,7,9,7
-6,-2,-1,-6,-8,-6,20,7,7
-2,4,-2,17,4,7,-9,-4,7
1,0,0,-13,-4,-6,-17,-7,7
-17,-1,-1,5,0,0,5,1,7
5,2,5,8,3,0,0,0,7
1,4,-2,-3,-2,-6,6,7,7
9,5,1,8,-2,4,-8,-2,7
4,7,-7,-11,-5,0,7,-4,7
-6,-28,-7,-1,-1,1,14,4,7
-4,4,-2,8,2,-1,-33,-9,7
2,-2,0,-11,0,-1,-2,2,7
1,4,1,2,3,3,8,-1,7
4,9,-2,-8,-2,-2,-1,-2,7
7,12,3,-4,-1,0,15,3,7
-4,0,0,0,-4,-2,-2,-2,7
-8,-11,-2,-8,-3,-3,-8,0,7
12,24,3,9,1,-1,-2,-1,7
-8,-16,-3,6,0,-4,-8,3,7
0,-7,-2,7,4,3,11,0,7
1,-2,-2,-25,-6,-2,4,6,7
-3,-1,1,10,-3,0,-25,-10,7
5,-1,-5,-10,-3,-3,-6,-3,7
1,1,2,-4,-1,-2,4,2,7
-11,7,-3,0,3,1,11,3,7
3,-4,16,6,-4,-3,-2,-1,7
22,-2,-18,-13,0,2,-19,-5,7
-3,-2,-1,4,-1,0,15,3,7
-1,1,2,8,2,-6,-13,-7,7
1,11,8,12,1,6,0,0,7
-5,4,-2,-4,-2,1,27,4,7
-16,-14,-7,-4,-1,-4,-18,-5,7
10,6,0,-2,-3,2,-13,-4,7
-10,-2,-3,6,5,5,10,2,7
-8,-10,2,10,-3,-7,-12,-3,7
8,3,-5,1,1,3,17,3,7
-2,3,14,-1,-1,-9,-22,4,7
1,-25,-20,-21,-6,-7,-3,-1,7
0,5,3,-6,5,8,12,-3,7
0,-2,-4,-6,-2,2,0,2,7
11,13,7,33,6,6,18,1,7
6,0,-7,-27,-4,-3,-1,-2,7
-5,1,0,-3,-4,-2,3,2,7
1,-3,6,16,-1,-1,-9,-3,7
0,-14,-8,-13,-3,-3,13,2,7
2,23,2,-2,2,3,1,-6,7
5,-18,-6,-2,-2,-7,-26,-1,7
-11,-2,-1,-4,1,-4,-13,-3,7
-1,13,1,3,-2,1,1,-1,7
-20,-3,0,8,0,-4,-9,4,7
10,2,4,-5,-3,0,5,-3,7
-1,-9,-1,-3,-3,-1,0,-2,7
-10,-2,8,3,-2,-4,7,-1,7
12,1,-24,-6,3,3,2,5,7
1,10,9,5,1,2,1,1,7
4,13,-1,-14,1,-2,1,3,7
-8,-22,-10,-16,-7,-1,-3,-5,7
2,-6,10,5,-2,-6,-3,-2,7
-8,6,1,14,0,5,38,7,7
2,-5,-5,3,0,-2,-29,-11,7
0,3,6,18,0,0,-13,3,7
1,-5,-1,-16,0,-3,10,3,7
-6,-2,-9,-11,-5,-1,-16,0,7
-5,12,8,10,-1,-3,-12,-5,7
-6,-6,6,2,0,6,20,0,7
5,10,-10,14,1,1,6,1,7
-10,-34,-10,-11,-4,-7,-13,0,7
-6,-2,0,-4,2,7,22,6,7
20,-1,-11,0,3,-4,-10,-3,7
0,1,9,13,0,1,6,-2,7
-2,9,3,-4,-2,1,6,-1,7
1,-10,-4,10,0,-3,-3,1,7
1,0,-7,-7,-2,-3,-9,-2,7
0,6,12,-4,-1,1,2,2,7
-3,-2,-13,2,1,-3,-14,-7,7
2,-8,12,-13,-9,-1,14,2,7
-12,12,-1,-4,-1,-2,-4,2,7
-19,0,0,1,3,1,-14,-6,7
4,-19,-10,-3,-2,-6,1,1,7
-4,-4,1,2,-2,1,3,1,7
3,16,2,4,2,2,5,-2,7
7,-7,3,-1,-2,-4,-11,-3,7
-4,22,2,3,3,0,-7,-1,7
6,2,4,19,6,2,25,6,7
-10,-28,-24,-32,-9,-1,-3,-4,7
6,11,12,9,1,-1,-8,1,7
-6,2,9,7,0,-5,-12,-3,7
19,-3,-4,-2,0,-4,0,1,7
-2,2,2,-2,2,-3,14,-2,7
-1,-5,-1,3,-1,2,-24,-6,7
-1,5,0,3,-2,4,21,3,7
-11,-5,-2,3,4,1,-26,-6,7
6,-5,4,-2,-2,-2,3,2,7
0,7,-8,-8,-4,-3,2,-3,7
-1,12,7,-2,-3,0,1,5,7
-11,-13,-6,4,3,3,-17,-5,7
0,-3,-4,8,3,0,-1,0,7
4,0,4,-3,1,0,21,3,7
7,18,3,7,-2,-2,-7,0,7
-5,-2,-19,-31,-6,-6,2,1,7
-26,-19,-4,-9,-1,1,0,0,7
-2,-5,-1,5,-2,-4,7,3,7
0,-10,5,7,2,-2,-18,-8,7
9,12,5,2,-2,-1,-5,5,7
3,-2,-3,7,-1,1,27,0,7
-3,-3,0,-6,1,4,-14,-8,7
0,3,-2,-12,-6,-5,-13,0,7
6,-3,2,-9,-6,-2,5,0,7
-7,8,-3,1,2,-1,-8,0,7
0,-12,2,16,1,2,15,4,7
-4,12,0,1,3,2,6,-1,7
1,-5,8,-12,-3,-2,3,1,7
10,7,-3,-2,0,0,-5,-6,7
-4,-8,-21,-15,-9,-8,-5,2,7
-23,-11,-1,-4,-5,-4,-11,-4,7
1,-1,-3,17,5,2,12,3,7
10,13,7,-6,2,1,0,1,7
-3,-9,4,-5,-3,2,-12,-4,7
8,-4,-3,-11,-1,0,16,3,7
-3,2,0,8,3,4,3,-1,7
4,-12,4,8,-4,-8,-10,4,7
-1,17,-15,-10,-5,-3,-25,-8,7
0,-20,8,19,3,2,15,3,7
-3,-2,-5,-22,-3,-6,-7,1,7
-10,-14,-6,-17,-5,5,12,-3,7
9,9,4,4,1,1,16,8,7
-5,-5,-1,1,-2,-6,-27,-8,7
-1,6,-1,0,-2,-2,-2,-1,7
6,-2,3,11,6,-1,-11,2,7
25,7,7,-4,-5,3,9,2,7
13,-4,-4,7,3,0,4,1,7
-3,-6,-3,6,0,-3,5,2,7
-3,14,3,-6,-2,-8,-38,-8,7
-23,9,5,-4,3,12,16,-1,7
3,-14,1,1,1,-4,-25,1,7
9,-15,1,13,1,5,30,-5,7
9,13,1,-2,-2,7,11,3,7
-8,0,-7,-1,0,-9,0,3,7
-9,-2,-6,-11,0,3,-10,-4,7
-2,3,3,0,-3,-4,5,2,7
-5,5,-2,1,1,7,-12,-11,7
2,-18,6,15,-1,-3,14,-4,7
-3,-9,-8,-2,1,0,7,2,7
-9,3,-6,-16,-2,-3,-13,-3,7
18,21,14,14,1,3,21,8,7
-13,-6,-8,-8,-2,-7,-19,-5,7
4,4,-5,0,-1,6,6,-4,7
-1,-6,-3,11,-2,-1,-14,-3,7
-17,-11,-10,-24,-4,-6,13,3,7
5,-6,-7,3,4,0,15,-2,7
8,10,16,11,0,0,6,5,7
0,17,-1,-11,-4,-2,-55,-15,7
4,-21,-9,-5,-1,-4,-5,3,7
-11,-14,1,3,-1,-1,1,6,7
-1,30,3,-7,-2,-2,14,3,7
4,-3,2,6,3,3,19,5,7
-6,-6,-1,10,0,-2,-9,-3,7
0,-8,1,1,-1,0,11,3,7
-1,17,7,-3,-1,-3,-24,-6,7
3,6,2,10,5,12,32,5,7
-2,-4,-2,1,2,-2,-19,-5,7
-15,-10,8,16,6,2,1,4,7
-4,-8,-16,-35,-9,-7,2,0,7
3,10,5,-5,-5,-1,28,6,7
23,4,-2,8,-1,8,-4,0,7
-10,11,6,15,5,5,-16,-4,7
-2,-27,-5,-16,-4,-2,5,0,7
-39,-34,-13,4,-3,-7,-21,-3,7
2,25,6,-11,-1,-1,35,12,7
26,4,-1,-8,-2,-9,-22,-6,7
1,8,1,-2,0,5,-7,-5,7
-7,-9,-5,6,0,-1,-9,-5,7
-16,-19,1,9,0,-5,-7,-2,7
7,5,-3,-9,-1,-4,-8,1,7
-10,-10,-1,10,2,3,18,4,7
15,26,3,-14,-5,1,25,7,7
-12,-16,1,14,0,-4,-13,-10,7
-1,5,3,0,0,3,-27,-3,7
2,-3,-5,0,-1,-4,6,2,7
1,21,2,13,2,4,28,3,7
4,-13,-9,-27,-3,-5,-26,-5,7
2,-15,-1,3,3,-1,13,8,7
-24,13,13,22,2,1,7,-7,7
20,5,-19,-36,-13,-1,-9,-3,7
11,-16,-7,-9,-4,-5,-22,-5,7
-16,-12,-1,0,-5,1,9,4,7
6,-3,4,9,4,-3,-19,-5,7
3,0,3,10,5,-4,-18,-5,7
-10,7,4,-1,-1,0,15,4,7
4,3,-7,-5,-1,-1,0,-3,7
15,-4,2,4,-4,1,18,3,7
-6,-1,-2,-9,1,-1,-14,-1,7
4,5,-7,-1,3,3,21,3,7
-2,4,19,23,2,-3,-23,-1,7
-1,3,-17,-19,-4,7,37,2,7
15,3,9,6,2,-9,-29,-2,7
-16,6,-6,-29,-6,0,8,-3,7
-4,-4,-14,-16,-7,-5,-11,-2,7
-10,-9,-1,10,0,-2,19,2,7
7,-12,-5,2,5,0,-43,-7,7
10,38,27,25,1,1,5,4,7
5,-33,-22,-1,-3,1,1,-6,7
-12,3,6,-15,2,2,-1,-2,7
3,2,1,12,1,-4,21,2,7
-1,11,-4,5,0,-1,-10,-2,7
-4,-2,11,-33,-6,-1,-7,-8,7
13,-3,-6,6,1,-6,-18,1,7
-3,9,2,1,-1,6,13,2,7
6,-2,-3,6,-1,-3,12,1,7
-4,-3,-4,11,2,-1,-3,3,7
-2,2,3,-18,-4,2,-16,-3,7
-6,6,7,5,-3,-3,8,0,7
-5,-52,-20,11,3,0,12,2,7
4,11,10,2,-5,0,14,1,7
11,18,-9,-14,0,-1,-17,-4,7
-27,-25,-5,-13,-5,1,2,2,7
6,6,5,22,7,-3,-27,-7,7
2,5,3,-29,-2,5,32,4,7
7,16,10,26,5,-5,-18,-4,7
-9,-26,-9,-19,-3,-6,-12,-2,7
-11,-2,-9,-6,2,1,-10,-1,7
3,19,4,-5,1,1,18,3,7
7,-3,-1,-13,-6,-2,10,7,7
4,4,6,18,1,0,-6,-4,7
-8,-6,-2,-7,-3,-1,3,3,7
12,5,-1,12,2,1,7,0,7
-18,-21,-4,2,-5,-4,-3,-8,7
-14,12,3,7,1,1,1,4,7
7,-6,0,-10,-2,1,-8,-3,7
-2,10,-8,-6,1,0,4,2,7
0,-4,4,23,4,0,17,1,7
0,-5,1,-20,-5,-3,-8,3,7
1,9,-2,4,-2,7,5,-1,7
-5,-5,-3,12,8,-1,-1,-4,7
1,0,-2,-26,-5,6,19,4,7
-3,23,1,18,0,-4,-12,-10,7
2,-7,-16,-22,-11,-7,-23,1,7
7,13,3,9,1,3,3,6,7
-5,-9,3,8,-1,-4,-9,1,7
8,1,-2,5,8,5,9,1,7
4,4,19,22,5,4,27,0,7
-3,8,-12,-15,-3,-1,-26,-11,7
6,-26,-4,6,0,-5,2,6,7
-2,8,12,3,-2,-4,15,6,7
-13,-24,-22,-25,-8,6,3,-12,7
30,-2,-4,-9,-6,1,-55,-8,7
-3,17,0,0,1,-3,12,2,7
-2,0,1,11,5,3,-24,1,7
-12,-22,10,7,0,-8,-17,4,7
-8,3,-8,-6,-5,7,39,-6,7
1,0,-1,-6,-3,-3,-17,-5,7
5,0,1,9,1,-4,4,3,7
1,6,1,-7,-3,-1,12,8,7
-9,-8,3,3,1,-3,-6,-1,7
4,2,-1,5,-2,-1,-11,2,7
-6,-9,-3,-3,-2,3,12,-5,7
3,11,4,-10,3,3,-4,-2,7
2,14,4,7,1,-6,1,4,7
-5,7,15,27,1,5,4,-3,7
-5,-13,-26,-37,-2,4,4,-6,7
14,-3,-7,-9,-10,-9,-9,-1,7
-37,-10,5,-4,0,-4,3,10,7
6,-1,-7,-4,1,0,-1,-3,7
-6,-15,2,14,4,1,-4,-3,7
9,18,5,14,8,-1,3,2,7
-8,1,-3,9,3,-2,-7,-3,7
-5,-1,-2,-18,-7,0,-4,-4,7
8,1,-1,-2,-9,-3,7,4,7
2,-11,-4,-1,-2,-1,11,3,7
3,6,7,8,3,2,-9,1,7
-4,-13,-11,-2,4,-2,-18,1,7
14,8,6,-2,2,-5,30,3,7
-12,1,-1,-4,-3,14,-30,-9,7
-12,-30,6,38,3,0,34,4,7
0,10,-14,-50,-4,1,11,6,7
-4,3,0,-11,-7,-9,-21,-8,7
-4,2,-8,-5,4,-9,-10,9,7
3,8,2,3,-2,6,-3,-9,7
7,-12,6,18,5,3,14,7,7
8,-5,0,7,-4,0,34,12,7
5,15,0,-2,1,-9,-46,-11,7
4,8,2,-4,-4,-3,5,5,7
4,-34,-17,-1,-1,-4,-3,-6,7
-6,25,4,-7,0,3,-2,0,7
-3,-11,0,27,4,1,23,5,7
-1,7,-6,-21,-2,0,21,3,7
-5,2,13,-1,-4,-2,-46,-7,7
-1,-10,5,1,-3,-10,-19,-4,7
-3,2,-12,-23,-5,11,28,-4,7
13,3,0,4,0,-7,43,11,7
-11,9,-2,-1,-4,-4,-47,-11,7
-6,-17,-1,12,8,13,2,-5,7
1,20,13,16,6,-2,-10,-3,7
-15,-28,-18,-18,-11,-8,-7,-1,7
1,7,5,-3,-3,-7,11,2,7
13,-14,2,5,1,7,32,2,7
-13,11,6,-4,-3,2,10,-4,7
-3,-7,-4,-9,-3,-5,-38,-14,7
1,-2,-3,15,7,9,38,14,7
6,15,0,3,2,-4,-20,-1,7
6,-13,3,-6,-3,1,17,7,7
-4,-6,-3,3,-1,-2,-17,-12,7
-4,18,16,-6,-4,0,-3,-1,7
-11,-21,-20,-16,-1,-1,-3,-3,7
19,15,-6,3,3,-4,-9,4,7
2,-5,15,26,-1,0,9,8,7
8,10,-8,-29,-3,-1,35,2,7
-25,-17,2,-3,1,2,-60,-15,7
-10,10,7,4,-1,-4,16,-1,7
16,10,6,3,6,2,-24,2,7
-4,-12,0,21,4,1,32,0,7
-2,-5,-7,-12,-8,-6,-6,-8,7
18,-10,5,-13,0,-4,4,6,7
7,12,-6,-2,2,-1,-12,-1,7
0,-1,0,9,2,1,-13,2,7
2,-4,-5,3,0,0,10,5,7
4,14,10,3,-8,-7,-19,-8,7
-1,-9,0,4,2,2,10,-2,7
-21,-11,-12,5,0,2,16,2,7
17,5,-2,-4,-6,-4,-12,1,7
-3,-8,-9,-10,-6,-18,-18,0,7
9,6,11,-12,-2,16,-9,-3,7
-13,9,0,11,2,0,4,-20,7
-11,-13,4,7,-1,5,-4,3,7
-3,12,-5,7,4,-3,23,9,7
6,5,4,-4,-1,-5,-17,5,7
0,-1,-9,-19,-5,-1,-4,2,7
1,9,4,8,4,-2,7,7,7
-14,-14,0,9,1,1,-36,-15,7
-6,-9,-10,-9,-8,-7,20,1,7
11,10,7,-5,0,7,-12,3,7
-14,17,3,-2,2,3,31,-2,7
3,-36,-14,-1,0,-1,-5,5,7
-11,-5,2,-5,-4,-4,-12,-5,7
8,0,-3,5,1,1,1,-1,7
9,6,6,0,-4,-4,0,0,7
-5,2,3,2,5,6,6,-5,7
-7,7,-7,-19,-7,-4,41,8,7
3,-18,3,6,-7,-7,-65,-7,7
16,37,3,-3,6,-4,2,8,7
-11,-3,-2,-20,-13,-5,4,-6,7
2,-12,-3,4,4,13,-16,-4,7
-3,-7,-7,-2,5,-4,19,6,7
3,-3,-1,17,-1,-1,-8,-4,7
-6,11,12,35,7,0,10,-1,7
19,27,-15,-56,-13,-6,13,15,7
-29,-39,-1,7,-4,-3,-13,-11,7
-11,-10,-16,-23,-7,0,-4,-5,7
30,-3,11,12,3,2,19,10,7
-2,4,3,17,3,0,-7,-8,7
24,32,-1,-8,2,2,4,7,7
-6,-28,2,5,-1,-6,-13,-1,7
-17,-6,-6,-5,0,4,34,-2,7
1,-7,-3,4,0,1,-20,-2,7
15,19,7,13,-1,-6,12,1,7
-15,-10,-1,-12,-2,10,22,-5,7
0,0,-9,-29,-5,3,-23,-2,7
-5,-18,-4,5,2,-1,12,0,7
-18,10,24,24,3,-4,-19,-8,7
-1,-3,-10,6,1,-1,9,2,7
-9,-12,-13,-38,-4,1,0,4,7
4,15,6,9,-2,-6,2,1,7
7,-16,-12,-13,-1,-2,6,1,7
4,-7,9,14,7,2,0,1,7
-2,12,1,3,-1,-5,5,5,7
-5,-8,-3,11,5,-2,-28,-16,7
1,9,2,-5,-4,-1,-1,3,7
12,5,1,-10,-1,-4,0,4,7
-23,-19,-3,2,1,-3,-9,-1,7
-23,0,-1,4,-2,-1,50,9,7
2,-1,-9,-4,0,-2,-56,-14,7
6,4,-4,-5,0,5,-25,-7,7
3,-3,0,7,0,1,8,1,7
-5,-12,-3,-3,-5,-8,-34,-4,7
2,3,5,-2,0,7,49,13,7
2,6,-4,10,1,-3,15,10,7
-4,33,15,28,0,-6,-26,-18,7
14,-32,-14,-29,-1,2,-30,-7,7
1,-7,-14,1,-2,-3,17,5,7
1,-9,-1,-24,-9,-3,-13,2,7
-8,-7,-4,-1,0,3,11,-3,7
9,17,7,2,-3,-5,8,9,7
-9,-17,-4,12,0,-4,-5,-12,7
0,8,8,21,3,-1,-11,-4,7
9,3,-2,-12,-1,3,8,4,7
-12,-13,0,6,1,-1,-3,-4,7
6,11,1,-6,2,1,-1,4,7
-7,0,-3,0,1,1,7,-3,7
7,0,0,-4,-4,-6,21,3,7
3,-5,1,5,3,6,-46,1,7
-10,9,-5,-7,-4,5,18,-5,7
-3,-1,7,4,-1,-2,-5,-8,7
-12,-11,-1,-5,3,-5,-11,4,7
17,-30,-14,-5,0,6,30,-3,7
6,23,21,13,3,-3,0,4,7
0,8,-12,-20,-9,-4,2,5,7
-26,-2,-1,-3,-5,-4,-15,-2,7
-13,6,2,-5,-3,-4,20,2,7
-6,-28,-6,9,5,3,4,-1,7
16,28,-1,-6,-1,2,3,0,7
11,3,4,1,3,3,10,6,7
-10,10,-3,27,0,-2,-25,-10,7
6,1,8,-9,-6,-6,-16,1,7
-3,-2,5,4,2,-1,11,4,7
8,-11,-8,-2,-2,0,-2,0,7
-4,3,4,-5,4,1,7,0,7
3,2,-2,-6,-4,-9,-7,6,7
-1,0,3,7,2,12,18,-6,7
4,0,-2,0,0,1,-27,-3,7
7,6,2,-1,-2,-11,6,4,7
-8,-4,-9,-9,-1,5,44,10,7
-6,-9,3,9,1,-10,-30,-10,7
32,13,1,0,2,7,-17,-5,7
-14,-8,1,-5,-9,-6,-15,-3,7
0,1,-1,-9,-3,-5,5,6,7
-6,-13,-2,10,6,0,-3,-3,7
5,18,-4,-22,-12,-2,13,2,7
-4,-13,1,23,-1,-6,-4,-1,7
-5,4,-2,5,1,2,10,-1,7
-9,-23,-4,4,3,1,0,3,7
-7,8,-3,-5,-1,-2,-4,-7,7
15,14,8,-14,-4,-1,9,5,7
16,-8,-1,4,-2,0,-5,-2,7
-5,-3,4,9,1,-6,-27,5,7
-3,-12,-7,3,0,14,60,4,7
-2,16,4,-5,4,2,-20,-1,7
9,-18,-9,-5,-2,1,-28,-11,7
-12,-1,-2,-4,-3,-10,-24,-3,7
9,-6,4,14,1,1,14,10,7
5,17,5,4,2,2,8,5,7
-4,13,-2,-2,3,3,6,-9,7
16,22,7,5,-2,1,9,6,7
-13,-13,-14,-25,-8,-8,-10,-4,7
1,-3,5,9,1,1,1,0,7
-16,-9,-8,-19,-2,-4,-21,-4,7
6,3,-5,1,0,2,18,2,7
1,-2,7,17,2,-1,-20,-1,7
-21,6,5,-1,-1,1,19,-3,7
28,-5,-17,-49,-5,1,-8,3,7
-3,9,9,23,-3,-4,-4,-1,7
-7,-4,0,-2,4,3,21,6,7
-15,8,-10,-3,-1,-4,-17,-3,7
-2,-33,8,12,-6,-2,17,0,7
-3,-3,-18,-19,-3,-1,-29,-10,7
4,-4,4,-4,3,3,-8,-2,7
3,3,7,27,3,-4,17,2,7
-5,20,6,2,-1,7,8,-4,7
6,11,-9,-24,-4,-6,-6,2,7
-18,-33,-2,16,0,-4,4,1,7
11,-5,-17,-25,1,8,-5,-9,7
3,17,8,16,4,-2,1,5,7
-18,-14,3,0,-4,0,7,-1,7
-5,6,-2,5,1,-1,-15,-2,7
7,-2,4,-11,-1,0,7,1,7
-10,-4,1,12,8,4,-13,-1,7
16,3,0,-6,0,7,30,2,7
-14,-4,-6,-31,-8,-7,-19,-1,7
-3,-10,5,35,-2,-4,-1,-2,7
-7,13,6,16,0,-1,20,5,7
26,-24,-13,-31,-2,-4,-39,0,7
11,17,6,29,6,-1,-5,-7,7
-3,14,-8,-31,-5,-3,8,0,7
-2,8,3,-5,-2,-4,-15,5,7
-6,-4,3,15,2,2,27,3,7
-1,2,-2,-9,2,-1,-11,-1,7
11,-21,2,3,1,-1,-15,-2,7
0,10,-4,5,-2,-2,23,-2,7
-10,-9,-3,-15,-3,-2,4,2,7
-3,11,4,12,-1,1,-25,-9,7
3,2,-1,4,7,3,6,3,7
-4,-21,-2,-7,-6,-5,-3,3,7
1,22,3,0,-2,4,26,2,7
4,4,0,6,2,-2,-6,0,7
-1,-20,-13,12,3,5,9,-5,7
-16,-3,3,-14,-3,-7,-61,-10,7
-6,-6,-3,1,1,1,-7,-5,7
9,1,4,-4,-3,-1,26,4,7
7,11,5,5,-2,-2,12,6,7
-9,8,-10,-7,4,2,-9,0,7
0,-9,7,11,-3,-1,10,0,7
5,-5,3,3,-1,0,-9,0,7
-27,-6,-14,-13,-5,-7,-9,-5,7
-3,3,12,5,-4,-3,-1,0,7
1,12,-1,-1,-1,0,7,4,7
27,-12,6,14,4,3,4,-2,7
-7,4,-6,0,6,3,-10,-3,7
2,-9,-5,-4,-2,-1,14,2,7
10,7,-3,-22,-5,-2,-3,5,7
-13,-12,-1,2,-5,-4,30,-3,7
-2,-2,1,-4,1,3,-50,-8,7
0,3,-3,12,2,1,-16,-4,7
-6,-8,-2,2,3,2,26,1,7
-3,10,1,-18,-7,-14,-35,-10,7
-3,-1,2,-9,-4,2,7,2,7
-8,-1,-7,-3,0,5,28,5,7
-7,-5,3,13,-2,-4,-28,-6,7
-5,3,-6,-2,2,4,14,6,7
11,2,1,-9,-4,-6,-11,3,7
7,-25,0,16,5,4,14,-3,7
1,35,23,11,2,-4,-33,-5,7
-5,-9,-25,-40,-11,-2,0,3,7
1,9,-9,-16,-9,-6,13,6,7
-6,-16,-5,12,5,-1,7,-2,7
-5,-4,-3,-7,2,3,12,-2,7
5,9,14,32,5,-1,-16,-6,7
2,-14,-8,-24,-7,0,5,-2,7
1,2,0,-2,0,-1,2,0,7
-4,-5,-4,-3,-1,-2,-1,-4,7
0,20,2,4,-3,-3,-13,2,7
-19,-15,-12,-8,-1,0,19,-3,7
6,9,4,13,-2,-1,-6,-2,7
-3,-12,-4,5,-1,0,0,1,7
1,-7,-5,-9,0,1,23,4,7
9,2,18,18,6,-3,-24,-8,7
-12,14,-9,-17,-2,4,10,-2,7
5,-35,-12,4,-3,-4,-9,-2,7
1,-8,-4,-8,-2,-6,-16,-1,7
6,22,3,-1,1,2,5,-1,7
16,10,8,-3,-1,-3,-7,3,7
-10,-15,-12,-2,2,2,14,4,7
-4,3,6,9,4,3,8,1,7
1,-5,-1,1,-5,-1,2,1,7
4,2,2,2,0,-1,-5,0,7
3,12,0,5,2,2,5,-1,7
-5,-14,-5,-10,0,0,-7,-1,7
-1,19,8,-10,0,0,7,1,7
-3,-10,-11,11,-3,-2,-2,-2,7
3,5,16,9,3,-1,-5,1,7
-26,-6,-1,-2,-8,-3,-2,-5,7
9,11,2,-6,5,-1,28,6,7
-2,18,4,-4,-9,-1,-3,-6,7
4,-7,-10,-12,-2,-4,-30,-3,7
-11,-18,-3,4,5,4,-2,-3,7
4,-4,-2,20,3,2,18,8,7
-15,2,2,-18,-5,-10,-28,-8,7
9,13,0,-1,0,16,56,9,7
-4,-4,-5,9,-4,0,-19,-6,7
6,20,0,-14,-3,-1,2,0,7
4,-9,0,2,1,-4,19,2,7
-4,-20,-5,-1,-2,-1,-11,-4,7
10,10,4,-2,2,-6,14,0,7
-4,0,1,10,0,-2,-51,-9,7
5,7,2,2,3,3,16,6,7
-25,-14,-10,-3,1,-4,-6,-2,7
7,-9,-2,-2,-7,1,18,3,7
5,-2,-6,-31,-11,-5,1,2,7
-10,-7,0,4,-1,0,0,1,7
7,2,1,-8,2,-3,-20,-2,7
6,17,9,8,6,2,2,4,7
-2,-17,-2,1,-1,1,4,-5,7
12,-5,-3,2,-5,-2,-14,-1,7
1,4,1,-3,-1,-2,13,0,7
-5,11,-2,7,0,0,-7,-2,7
-1,-9,1,-5,-1,0,5,2,7
12,-1,-7,-9,-2,-2,27,3,7
-6,4,3,5,1,-1,-48,-4,7
16,22,3,-6,2,5,62,11,7
-1,-16,-3,-2,1,3,-52,-12,7
-25,-13,3,-3,-2,0,-14,-1,7
2,10,-8,3,-3,-5,7,-1,7
-7,-36,-5,1,-2,-3,-7,5,7
0,28,-4,-6,-1,6,41,-1,7
13,-10,0,3,6,4,4,0,7
-6,10,3,-14,-2,-2,23,1,7
-27,-41,-8,-9,-2,-4,-71,-12,7
-6,-5,0,15,-1,-5,11,7,7
-3,4,1,-5,-2,2,-4,-5,7
13,16,4,12,1,-2,1,3,7
3,1,-2,-20,-1,-2,-3,-5,7
-10,-9,-5,10,-5,-1,-5,-1,7
6,13,1,-10,0,0,1,2,7
-22,5,9,10,-2,-1,12,3,7
4,2,-12,-9,-1,0,4,-3,7
2,-7,5,18,1,-2,-20,-3,7
9,11,-2,-9,-3,-1,2,4,7
-14,-22,-6,-21,-5,-5,-15,-6,7
8,24,13,11,-1,-4,-17,2,7
-2,-11,-5,5,7,15,60,3,7
5,10,-5,8,-1,-2,-4,-4,7
5,18,8,-4,5,4,3,3,7
17,-11,-11,1,0,1,11,0,7
-11,1,5,-8,-5,-8,-36,-1,7
-3,-5,-2,14,1,1,14,4,7
7,-16,0,-3,-3,-4,-9,-5,7
-5,20,3,3,-1,1,-4,0,7
-3,-5,-2,6,2,-9,-3,3,7
-3,-9,6,10,6,6,-10,-5,7
11,5,-8,-5,-5,-1,26,12,7
-6,-4,-1,-8,-6,-6,-12,-1,7
-4,-10,-6,-18,0,-1,9,-3,7
4,4,1,21,3,-3,-25,-2,7
13,6,4,10,3,1,1,-2,7
-33,-6,-1,-16,-4,-1,-2,-1,7
1,10,1,15,0,1,1,1,7
-5,-41,-5,-9,-5,-1,6,0,7
-4,1,0,5,3,1,-9,-5,7
28,12,2,-20,-4,5,40,8,7
-12,-5,2,6,0,-7,-47,-14,7
1,-1,-16,-17,0,0,-4,-2,7
-3,-7,6,13,1,1,-8,2,7
5,6,0,11,1,-2,1,-1,7
14,9,0,-7,-4,-2,32,12,7
-10,-9,2,3,-3,-3,-36,-19,7
5,4,-3,-16,-1,1,4,0,7
-8,2,10,27,7,-1,-16,-2,7
-2,2,-12,-17,-5,2,20,3,7
3,6,5,-11,-1,-1,4,4,7
10,25,9,1,-4,-2,5,2,7
-16,-61,-21,-1,3,1,-14,-8,7
12,19,11,11,5,1,5,3,7
1,17,0,0,-4,-5,-3,2,7
-7,-18,-6,-12,-2,-2,-5,-5,7
7,11,4,-9,-6,-3,-22,-2,7
-6,-4,1,6,1,-3,1,3,7
13,-4,-2,-4,0,7,7,2,7
-12,-11,1,10,-1,-4,14,1,7
10,17,2,10,5,7,-3,-2,7
3,-11,-7,-19,-5,-2,-6,-2,7
-15,3,0,8,1,-6,-3,4,7
1,-4,-5,2,-1,-3,-5,-5,7
-4,2,-1,-2,2,-1,-10,0,7
8,1,11,12,1,8,13,2,7
1,-1,-12,-5,0,2,17,7,7
1,1,8,9,1,0,-10,-10,7
3,6,-2,5,-6,-8,-21,-5,7
-13,1,-4,-10,-8,-9,-16,6,7
-17,-12,-7,-21,-4,-1,-13,-12,7
5,-7,2,-2,-3,6,34,12,7
-4,28,10,16,10,5,-7,2,7
13,-16,-3,10,1,-2,-10,-5,7
-8,-14,0,-6,-2,-7,19,6,7
-7,8,-7,2,0,2,-21,-9,7
6,-19,-5,-5,-1,1,22,3,7
1,13,9,6,1,3,-8,-1,7
13,11,4,-1,-2,-3,-3,7,7
-3,-9,-9,0,2,-2,-16,-7,7
5,4,4,-11,-4,0,28,7,7
-1,0,-10,-19,3,10,15,1,7
5,17,3,-21,-5,-1,-19,-8,7
-9,-30,4,45,3,-3,15,4,7
-10,-2,-14,-18,0,1,-6,-5,7
1,12,18,-20,-11,-4,3,3,7
3,-6,-17,-13,1,1,22,2,7
-1,29,3,-27,-3,3,-12,2,7
-1,7,5,33,-2,-6,-6,-2,7
3,-17,-3,2,3,0,5,-2,7
-12,12,6,5,0,-2,-8,-1,7
-14,-18,-6,-8,-4,-6,-5,2,7
3,-8,0,-2,2,-1,17,2,7
3,12,1,8,1,-6,-22,-9,7
-2,13,4,7,0,5,27,1,7
-15,-25,-14,-14,1,5,38,3,7
3,7,6,-5,-1,-3,-33,-2,7
-2,6,-3,11,4,-2,-13,-4,7
0,-17,5,19,4,-2,-22,-3,7
8,14,-1,-18,-8,-12,-14,-1,7
0,6,-1,-6,-3,9,44,5,7
-6,-31,-12,-5,1,5,15,1,7
0,0,5,-3,-3,-1,-9,-1,7
7,7,-3,12,1,-3,-19,0,7
-6,-12,2,2,-7,-6,-3,-3,7
-11,6,2,4,1,0,6,-2,7
19,0,1,-2,0,0,0,3,7
4,1,-3,-17,-4,-1,-12,-3,7
-8,-13,-9,20,3,1,25,3,7
-4,14,1,-4,-6,0,-16,-3,7
-3,-3,-4,-6,-2,-4,-6,-1,7
6,2,2,13,-1,1,69,11,7
6,-3,2,-10,3,8,-66,-14,7
-1,12,1,-8,4,-7,-10,-1,7
-5,-19,0,42,2,-2,-2,0,7
1,22,-3,-40,-7,-1,4,-1,7
6,22,6,-1,1,-2,11,-3,7
0,-42,-14,-2,0,-3,-8,5,7
-16,6,-1,-13,-2,-1,18,-6,7
-21,-4,9,27,4,1,-34,-9,7
0,-16,-9,-21,-1,1,31,9,7
-17,13,-2,-13,-3,-3,-4,-2,7
-3,-7,1,11,-2,-7,-13,-3,7
1,-3,-1,-3,3,4,-35,-9,7
7,6,8,-7,1,-2,0,3,7
11,5,-4,-6,-3,1,17,2,7
1,1,-3,1,-8,-10,-6,6,7
-8,-5,1,1,0,-2,-4,-1,7
0,11,-2,-3,1,0,-4,-5,7
9,-30,-5,8,2,2,22,4,7
-11,-2,-1,-11,-1,-1,-6,-1,7
10,3,-7,-9,-4,1,-5,0,7
-4,-11,-1,11,0,-3,-1,1,7
-4,17,3,7,3,0,3,1,7
9,4,0,-10,-1,3,-9,0,7
9,-7,-2,5,1,-4,3,1,7
-10,-1,-2,-3,-2,1,29,0,7
-1,-4,-1,9,-1,8,-24,-3,7
2,-2,-6,-3,1,3,-2,-2,7
2,5,10,14,1,-5,6,4,7
0,-1,1,-13,-6,-1,2,4,7
-10,1,2,-2,-4,-5,-10,-7,7
10,14,1,5,5,2,24,1,7
1,-8,-12,-15,2,8,-8,-2,7
9,3,-8,-7,-3,-8,-18,-5,7
4,-18,1,30,6,0,10,5,7
6,4,4,-12,-4,-5,13,3,7
-9,27,7,14,-1,6,-17,-7,7
-5,-13,2,-1,-3,0,-8,2,7
-2,5,2,-10,1,-2,13,4,7
9,3,2,6,5,6,-3,-3,7
9,-7,-5,0,-1,-5,6,6,7
-3,-3,-2,10,-1,-4,-14,-3,7
-5,6,-1,-2,-4,-1,2,-6,7
0,0,1,-2,1,0,4,4,7
-3,-9,1,-2,-4,-10,2,0,7
-10,0,1,-9,1,10,16,-6,7
5,-3,-5,-1,-2,-5,-21,-3,7
-3,-1,3,5,-1,-3,11,3,7
3,-6,-11,8,2,2,-21,-2,7
-2,-5,-2,-14,-2,-2,4,-4,7
1,-14,-5,-18,-2,2,5,5,7
3,26,5,6,-2,0,9,3,7
-18,-39,0,-14,-5,-6,-28,-5,7
-8,7,3,16,1,-2,2,4,7
20,13,-9,-2,-1,2,13,3,7
-18,-25,-3,6,0,-1,-27,-8,7
7,8,-3,-10,1,5,19,1,7
6,4,1,4,0,-5,-1,4,7
-9,-9,4,-8,-1,3,-3,-7,7
-9,-1,-3,-8,-3,0,-7,1,7
10,8,0,-4,1,7,24,1,7
-3,-2,2,11,1,-1,-33,-5,7
2,10,2,13,2,-5,-3,5,7
0,-3,-3,-7,1,0,6,1,7
-6,-2,-1,-5,-3,-5,-15,-5,7
4,-5,-2,3,1,1,1,1,7
-7,0,1,3,-3,-4,0,-6,7
2,2,0,-4,-2,-4,-10,0,7
3,-10,-3,5,0,-6,8,-2,7
-4,3,-8,-19,-4,2,8,3,7
-2,9,5,6,-1,-2,-4,-3,7
6,-3,-2,-18,-4,0,4,-2,7
-16,-7,2,11,0,0,10,5,7
-11,-7,-10,-7,-6,-3,-7,-6,7
8,5,-1,3,-2,1,1,2,7
1,-7,3,-5,2,1,-2,-2,7
11,18,0,18,3,-1,-2,0,7
-13,-14,-6,-8,1,2,13,8,7
-4,8,2,3,-1,-2,3,-3,7
-2,2,-4,3,-3,-3,-17,-4,7
4,-20,2,-4,1,1,-4,-7,7
9,29,10,10,1,-5,-5,3,7
-4,5,0,-10,1,0,19,0,7
3,-15,-2,12,-2,-7,-22,-5,7
-7,5,1,-11,-2,7,-4,2,7
12,6,6,13,0,2,31,8,7
-11,-19,-9,-5,1,1,1,-2,7
-4,8,0,12,1,1,-3,-4,7
2,2,-1,-10,-1,-4,5,3,7
-5,-10,-5,4,-2,-1,-9,-6,7
10,10,1,-16,3,3,8,5,7
0,-4,1,16,1,1,6,-3,7
8,16,2,-13,-5,-3,-9,2,7
3,-18,0,14,0,0,11,0,7
7,-10,-4,2,-1,-4,-24,-6,7
-12,0,1,-7,-3,2,2,2,7
12,22,10,10,3,1,16,5,7
4,2,-15,-16,-3,-10,-21,-5,7
-10,-10,2,-2,-2,2,-23,-2,7
1,-10,-1,-5,2,4,30,2,7
-1,3,-4,7,-2,-1,-13,2,7
23,-1,8,-7,0,1,-9,-4,7
-3,-8,-12,5,-5,-3,5,1,7
3,14,-3,-6,4,3,-3,-2,7
0,-9,-8,-14,-6,-5,1,-4,7
-7,0,6,16,2,2,12,6,7
-1,7,7,-2,-2,-6,-3,-3,7
-5,-13,1,-9,-2,1,1,8,7
-5,1,-9,0,-3,-3,-37,-17,7
-6,-12,0,3,0,-3,-15,-2,7
-2,-1,8,5,1,2,18,2,7
4,12,-13,-9,-3,-5,6,2,7
3,-4,11,9,3,2,-7,1,7
-9,15,3,-31,-2,-1,7,-2,7
3,-9,7,21,5,-1,-3,-1,7
4,-2,-8,-21,-7,-2,-1,-4,7
-11,-14,-2,-3,0,0,6,3,7
1,1,4,1,-2,-1,2,-5,7
1,11,1,9,-2,-2,14,3,7
2,-8,3,7,3,-8,-35,-2,7
5,10,2,-11,0,15,36,0,7
-5,6,0,23,2,-7,-28,-5,7
-5,0,0,0,-4,2,18,-2,7
-2,5,1,4,0,-1,-20,-5,7
-12,-11,-5,-1,-3,-6,10,4,7
2,-14,-4,-2,2,4,14,0,7
0,9,4,-3,-1,-3,-25,-6,7
5,19,8,7,-6,-3,11,2,7
-10,-13,-9,-14,-3,-4,1,3,7
5,5,4,-1,0,1,-1,4,7
-10,-16,-8,19,2,3,-7,-1,7
-8,-6,11,21,4,6,46,3,7
6,11,-15,-28,-2,3,-43,-8,7
-2,-7,-4,-28,-10,-6,5,7,7
3,-4,0,-1,-1,-3,-7,4,7
-4,16,-5,-1,-1,0,-5,0,7
-4,-21,3,12,1,-1,13,0,7
8,5,0,6,5,1,1,-1,7
3,3,-6,-7,-3,-1,-14,-5,7
-6,-6,5,8,0,2,6,-2,7
-2,9,2,-2,-7,-8,-1,0,7
5,-2,-5,-10,-1,-1,2,6,7
-24,-7,-1,-10,-6,-5,3,-3,7
14,-1,-7,-4,-1,-10,-46,-14,7
-7,-16,3,11,5,10,33,6,7
4,11,-5,1,1,8,1,-9,7
-2,-11,-5,6,2,2,6,3,7
17,-3,1,-14,-3,-5,-12,5,7
-1,1,-3,-1,-8,-2,14,2,7
8,-3,1,13,-1,-4,-15,-1,7
5,14,4,-11,0,3,13,3,7
-15,-6,-5,-6,-2,4,18,2,7
7,6,8,14,2,-9,-46,-6,7
-4,9,-5,-16,-5,2,20,2,7
-3,-18,-7,24,-4,-7,-16,-5,7
-8,-5,-5,-22,-4,-2,-5,-1,7
7,3,-2,1,5,4,24,5,7
1,8,-1,4,-1,-6,-21,-7,7
-3,9,7,-4,0,1,1,2,7
-4,-13,-1,15,-1,0,7,0,7
3,7,-12,-1,2,5,1,1,7
-5,-13,-4,3,-2,-3,-6,-3,7
8,5,2,-17,-4,-1,12,3,7
-8,3,4,3,2,2,1,0,7
-6,-2,2,4,-3,-5,1,-2,7
0,0,0,12,6,2,3,2,7
6,4,7,-6,-3,-1,-7,3,7
-5,-5,-12,-5,-3,-1,20,-2,7
3,7,-1,10,-3,-6,-22,2,7
-11,-14,-1,-1,5,12,24,-3,7
8,-5,-11,-18,0,-4,-2,-1,7
17,5,1,-28,-6,1,-8,-2,7
-1,12,8,7,-3,-6,1,4,7
-5,-4,-1,14,-3,-9,-1,1,7
6,-18,-4,5,0,4,11,2,7
-3,16,8,11,6,-1,-7,-2,7
-1,-12,7,-2,2,3,5,-2,7
-10,6,2,-27,-10,-5,-11,-2,7
-7,9,-2,-3,-1,1,2,-1,7
4,-7,-8,-1,-1,-2,-13,-2,7
-6,-7,-1,10,4,0,0,0,7
5,0,4,5,3,-1,-7,0,7
-2,4,6,3,-1,0,18,0,7
-5,-13,-6,-2,-3,-5,12,-3,7
1,18,-3,-17,-5,-8,-37,-6,7
-5,-4,-2,-7,0,4,11,2,7
1,0,-5,-2,-3,-3,-9,-5,7
-1,1,2,12,1,0,15,7,7
-3,-16,-5,-15,0,9,19,-6,7
3,-2,1,5,0,-5,-18,2,7
8,19,7,20,4,-2,-11,-4,7
-1,-4,2,-7,-3,5,-1,-1,7
0,-18,-17,-17,-5,-7,-13,-2,7
-23,0,10,-2,-3,-2,4,1,7
8,-14,-9,11,3,3,24,5,7
3,2,0,-11,-5,-5,-34,-12,7
11,-3,-1,-11,-1,-3,21,5,7
6,2,5,-10,-3,4,2,-1,7
-6,-3,-3,-7,1,-3,-13,-3,7
1,1,4,17,-1,-2,-10,0,7
-4,5,0,-6,-1,0,-2,-6,7
-1,-8,-6,6,1,-1,1,-1,7
0,4,-1,-8,-3,0,-6,0,7
3,3,-2,2,1,0,16,4,7
-2,-1,4,10,0,1,-11,-2,7
-5,-4,-3,2,-3,-7,-15,-2,7
-3,-4,-3,-5,-4,-1,18,-1,7
-4,5,-2,-8,1,5,-16,3,7
-4,-9,2,7,0,-13,-17,-10,7
5,10,-2,-2,-1,1,10,-3,7
-6,-1,-1,7,1,0,-16,-6,7
-1,-4,-1,-4,-6,-3,21,8,7
11,20,8,13,-2,2,1,0,7
2,-33,-17,-41,1,4,0,5,7
-13,-14,-3,4,-1,-1,6,-3,7
-10,-5,-2,-2,4,0,-6,-4,7
4,15,12,34,4,7,11,7,7
9,17,0,2,-4,-6,-11,-1,7
1,10,1,-16,-3,4,0,-1,7
-6,-22,2,13,3,2,5,1,7
-1,20,2,-12,1,1,23,2,7
10,12,3,15,2,1,-10,-6,7
-1,-10,-2,-7,0,-5,-4,3,7
-27,2,0,0,-3,-3,-42,-9,7
-1,-10,-4,-3,1,-1,0,-1,7
-7,-9,1,9,1,1,16,0,7
1,8,-1,-3,-2,-2,-6,-1,7
9,2,3,3,1,1,5,1,7
-6,-6,-5,-11,-6,-2,5,2,7
-3,1,-4,-3,0,-1,-1,-1,7
-1,2,-1,3,-2,-2,-14,-2,7
7,10,-1,4,0,-4,8,2,7
-13,-44,-9,-1,3,2,-2,-1,7
0,-9,-5,-16,-7,-1,1,-2,7
9,10,2,-10,-3,-3,2,0,7
2,6,2,9,0,0,9,0,7
8,23,7,2,-2,0,9,-2,7
-22,-18,-6,8,2,4,4,2,7
-5,1,6,-6,-2,-5,-31,-8,7
3,-13,-6,-7,-2,-1,-2,-1,7
6,6,4,9,-1,0,-8,2,7
10,32,10,2,5,10,33,3,7
-4,3,-6,5,-1,-7,-19,-1,7
-3,-15,-2,-10,-2,1,35,7,7
-2,-2,-3,-5,4,14,-18,-7,7
1,-7,1,5,-2,-10,3,0,7
-1,3,-1,-3,1,1,-19,0,7
-6,7,-1,5,1,1,-1,-3,7
11,-2,0,-6,-3,-4,15,8,7
8,0,-3,-3,-2,-3,-7,-5,7
0,19,3,-3,-4,2,4,4,7
1,0,3,20,4,1,11,3,7
-13,-12,-7,17,1,-4,-5,-1,7
-2,-4,1,3,1,-2,-12,-3,7
1,-10,1,-9,5,4,22,1,7
8,10,1,-8,-12,-4,-15,-1,7
1,20,4,-6,-6,-2,9,0,7
-3,-6,1,7,1,-2,-6,0,7
-12,-15,-10,3,-2,-2,4,1,7
1,-7,-7,-13,1,1,-12,-4,7
0,-5,0,7,-1,-1,3,-1,7
-1,3,2,-6,0,-2,-10,-1,7
5,-4,1,-12,0,1,12,3,7
3,9,2,-5,2,3,22,2,7
-2,-3,0,-3,-1,11,-17,-11,7
6,-2,-3,18,-4,-6,-1,6,7
2,8,3,-1,1,-2,6,-2,7
0,-3,-8,-4,2,1,-12,0,7
-5,-8,-3,-8,-1,-6,18,8,7
0,2,4,13,6,3,-4,0,7
1,-7,-9,-1,0,-1,2,1,7
4,1,6,-4,-5,-4,2,0,7
2,19,8,-10,1,-2,-3,2,7
-3,3,0,3,-3,-1,-6,-2,7
-1,-5,-6,-3,-4,-3,5,3,7
-5,15,-1,14,7,5,-8,-7,7
-20,-43,-15,-17,-5,-7,-11,-6,7
1,-3,1,-11,-7,-4,4,3,7
1,5,3,5,2,3,10,1,7
3,-17,-5,-5,-1,3,-10,-8,7
6,11,-4,6,4,0,-4,-1,7
-1,15,8,1,-2,-3,35,7,7
-8,-24,-2,5,0,4,-34,-10,7
-4,6,0,-5,-1,-7,-16,2,7
6,-6,0,-1,-5,1,10,2,7
-14,-12,-5,-7,0,-1,-5,-11,7
6,9,-8,-3,-2,-3,8,5,7
-4,-10,1,8,0,0,14,4,7
3,2,-3,-6,0,-3,2,2,7
4,15,3,-8,2,4,-15,-9,7
0,-34,0,-7,-9,-5,5,6,7
0,-4,-4,-6,-1,2,15,3,7
-3,-4,-6,-6,-1,-7,-20,-3,7
-8,-9,-6,10,2,1,-3,-1,7
1,4,2,-7,0,-1,7,-2,7
8,9,6,11,1,-3,-1,-1,7
1,5,6,10,2,5,6,1,7
18,-5,-10,-7,-4,-2,-2,2,7
-15,2,2,0,1,0,2,1,7
0,-4,-3,-12,-5,-7,0,-1,7
-7,7,-4,4,1,5,-21,-7,7
2,2,10,16,3,2,12,5,7
3,3,-13,-9,2,11,-4,-10,7
1,-6,0,-13,-2,-4,19,6,7
1,15,5,8,0,-7,-24,-11,7
-3,4,-5,7,1,-2,10,5,7
8,22,14,16,1,1,-11,-3,7
-6,3,-7,-38,-6,-1,-13,-3,7
1,-7,-3,-6,-5,-4,16,4,7
-2,4,0,-10,-1,-2,-5,1,7
4,3,5,0,6,0,-2,-3,7
15,8,-2,27,-5,2,17,1,7
-13,-8,10,4,0,0,3,2,7
-13,-12,-4,-8,-4,-3,-21,-4,7
-4,-6,-5,-5,-2,-1,-8,-2,7
-3,-3,-1,0,4,3,-2,3,7
5,11,-2,-6,-4,-7,-18,-8,7
-14,-13,1,6,-2,1,12,0,7
6,2,-1,5,2,1,10,1,7
-3,10,5,0,1,-1,-11,-5,7
1,5,1,1,0,-1,18,5,7
2,-5,-4,-4,0,3,-11,2,7
-4,7,2,-3,-4,-14,-14,-1,7
-6,-16,-2,17,-1,1,-7,-3,7
1,3,-3,-3,1,1,17,5,7
10,21,7,-6,3,0,-3,-3,7
-3,-3,2,7,-1,3,14,2,7
-8,-32,-11,-12,-2,-2,-12,-4,7
-2,-9,5,7,1,-1,7,0,7
4,-11,-8,-2,-3,1,16,4,7
0,4,4,-7,0,2,-28,-13,7
-7,23,2,0,1,-2,-7,-1,7
7,-22,-10,-12,-5,-5,-5,2,7
0,1,-3,-8,-5,-1,8,1,7
-3,-13,2,6,5,-5,-5,7,7
-5,0,0,7,1,9,21,2,7
8,12,1,-5,3,-3,-11,-2,7
7,25,6,11,1,9,19,-3,7
0,-34,-7,-4,-3,6,2,3,7
11,5,4,-2,-1,-9,-13,0,7
-12,-5,3,8,0,-2,14,4,7
-1,-10,-15,-10,-1,2,-10,-7,7
-23,-1,-3,9,1,0,-6,1,7
2,1,-1,-3,-4,-3,-1,-4,7
16,18,0,3,1,5,19,6,7
-5,-6,9,13,1,-7,-38,-9,7
-4,9,1,-1,-5,1,22,-1,7
-5,-13,-11,-26,-4,-4,-7,-2,7
7,1,5,13,1,0,13,0,7
-6,2,0,12,3,-4,-21,0,7
7,3,-4,4,-2,-1,-6,-4,7
2,-6,7,10,2,2,8,1,7
-9,-14,-13,-23,-7,-7,-26,-11,7
-1,-8,2,-5,1,3,5,5,7
4,1,-2,-2,-2,-5,-12,2,7
2,18,3,-3,-2,5,40,4,7
-5,-6,5,-1,-1,3,-21,-5,7
-3,-11,-11,-3,-1,4,2,-4,7
5,6,6,1,-1,-1,25,6,7
4,-2,2,2,4,0,-43,-7,7
-10,-5,-1,5,1,0,14,3,7
1,-1,3,-2,0,-6,2,0,7
32,18,-2,-8,2,-3,-1,3,7
-1,4,-3,-14,-2,1,28,6,7
-7,-30,-3,20,-1,-2,-16,-6,7
-4,-6,-4,-13,-4,-10,-20,-4,7
-5,0,3,13,-1,0,3,-1,7
-1,3,-2,5,-3,-1,1,-5,7
14,35,10,-10,3,0,-1,3,7
-13,-32,-6,0,-4,2,31,5,7
-30,-23,-12,-8,-1,-2,20,-3,7
-11,-11,-5,-5,-3,-6,-65,-13,7
1,16,-5,-30,-7,1,-4,3,7
3,3,3,12,-1,-3,5,1,7
8,12,3,-9,-2,-3,3,2,7
-6,-14,0,12,4,2,-3,-7,7
-3,-11,-9,7,4,2,2,0,7
6,26,7,-11,-3,-2,7,1,7
-1,-17,-7,5,0,-1,-7,-4,7
4,4,5,-4,0,-1,-11,1,7
3,12,-2,10,1,-1,6,1,7
-8,-26,-8,-20,-1,-3,20,4,7
-5,9,5,8,-4,0,-34,-14,7
-5,-4,-8,-5,0,2,3,3,7
0,-10,4,1,0,2,10,-1,7
5,16,1,6,-2,-2,-27,0,7
14,7,-1,6,5,9,28,2,7
11,-14,-2,12,-2,-4,-16,0,7
-8,13,1,-19,2,5,7,0,7
-8,-5,1,20,1,-3,-5,-2,7
-2,-22,-5,-15,-7,-2,3,3,7
1,0,0,-2,-3,-1,7,-3,7
4,-7,-8,4,4,0,4,2,7
5,12,9,2,1,3,12,-1,7
-7,6,1,-1,1,-2,-24,-5,7
1,7,3,-7,0,-4,10,3,7
-4,-9,-4,-2,-6,-1,-13,-4,7
3,0,-3,-7,0,0,10,0,7
-3,-1,0,-9,-1,-2,-11,1,7
0,8,0,-3,2,-2,8,4,7
-2,3,-3,-18,-5,-1,9,-3,7
1,-3,-3,3,1,0,-10,-2,7
4,-4,0,2,1,-4,21,4,7
0,16,4,32,2,3,-1,0,7
4,27,0,-29,-5,-3,-35,-4,7
1,-9,3,5,-1,4,9,6,7
-17,-24,-3,-7,-5,-8,-3,-4,7
-6,-11,-3,20,4,-2,17,4,7
-8,-6,3,4,3,6,-2,-4,7
12,25,0,-1,-3,0,-19,-6,7
6,10,4,-3,1,1,20,10,7
-1,-6,-2,2,2,1,-15,-9,7
1,2,7,15,2,2,6,0,7
3,-10,-6,-23,-2,-3,0,-3,7
-1,7,3,10,2,-2,4,3,7
-5,-10,-8,-22,-7,-2,31,0,7
-1,0,-1,13,-1,-6,-42,-9,7
22,-3,-2,4,0,1,-2,1,7
-5,8,-1,-3,-1,-1,-14,-2,7
0,-2,3,-2,-2,-2,31,7,7
5,3,-2,6,-6,-1,-12,-9,7
-9,-20,2,-1,-2,-6,-15,-4,7
-1,-20,-11,-3,1,2,6,1,7
2,3,-2,-2,0,-1,6,5,7
-14,-13,-1,7,-5,3,5,-3,7
1,15,-2,-17,-5,1,-2,-3,7
6,12,9,12,1,-1,-10,-2,7
-7,-4,-1,12,5,6,14,0,7
5,-12,-6,-6,0,-7,3,6,7
-8,8,2,8,0,2,-20,-2,7
4,6,0,-22,-6,-3,-8,0,7
2,-1,4,-6,-2,-2,-4,1,7
2,17,-1,6,3,-3,17,4,7
-6,-24,-7,17,3,2,2,-3,7
-3,1,-1,-16,-1,2,6,1,7
0,7,1,0,-1,0,-7,-1,7
-8,-22,3,-4,-3,-1,-8,-1,7
1,19,-6,-6,0,-5,-5,3,7
8,5,-5,4,-2,7,27,-1,7
-11,-6,1,0,2,4,-19,-3,7
-1,6,3,-2,-1,-3,4,-1,7
-1,4,-1,10,2,0,9,-1,7
-6,-4,5,18,6,0,13,2,7
6,10,0,2,-7,-2,-23,-5,7
4,3,5,-48,-8,-5,9,6,7
2,11,11,16,-1,-1,-1,-1,7
-16,-30,-20,-4,-5,-3,-5,-4,7
-5,-12,-7,-17,2,-2,-13,-3,7
-3,-18,-1,12,6,5,13,5,7
2,16,1,-4,-4,2,11,-2,7
8,12,-3,4,-3,-1,-5,-1,7
6,18,3,2,0,-3,-14,0,7
-2,-10,-6,7,1,2,-7,-7,7
-2,-7,7,-14,1,0,11,3,7
-2,4,6,13,3,0,-21,-6,7
13,-6,-7,-16,-6,-1,6,3,7
0,4,4,7,2,-6,-2,-1,7
-4,-11,-3,4,2,1,33,6,7
-6,-1,-6,-14,1,0,-40,-12,7
-4,-5,1,0,-4,-3,-11,-1,7
4,14,4,21,1,-2,12,2,7
9,8,-5,-7,0,3,0,-2,7
-10,-26,-7,-18,-2,1,15,3,7
-14,-4,3,4,3,-3,-8,-3,7
7,2,3,8,4,3,5,2,7
-13,-22,-10,-15,-2,-2,-3,0,7
10,20,10,8,0,-3,-11,-1,7
-1,-15,-5,-5,-3,0,7,-3,7
-5,-7,-3,5,1,2,22,7,7
4,6,-1,15,1,-5,-35,-10,7
1,0,0,-23,0,2,4,2,7
-1,-3,3,-19,-7,-1,2,0,7
-1,11,-11,4,-5,-9,-17,0,7
-3,-6,2,-3,1,9,58,7,7
-1,11,-1,-3,-2,-9,-53,-9,7
3,8,2,3,2,3,10,-3,7
3,0,-2,-6,-6,-7,-27,-3,7
-19,-38,-9,-7,-6,0,-4,-5,7
-15,-8,0,3,-1,1,23,6,7
-7,7,4,10,5,2,15,4,7
-12,10,1,-12,-1,-5,-14,0,7
3,4,4,9,3,2,15,1,7
9,20,1,-14,-4,4,14,1,7
1,-5,-3,7,-2,-4,-15,-3,7
-5,-12,-4,3,-1,2,15,1,7
-2,18,3,-8,1,-1,-22,1,7
3,-13,-7,-12,1,-2,6,-1,7
9,7,1,3,0,-1,-3,-1,7
-2,-11,8,6,4,3,1,0,7
1,15,-7,-6,-1,0,26,3,7
4,-7,2,13,3,1,-14,-2,7
-4,-6,-9,-10,-4,0,-6,1,7
-2,-7,1,-5,-6,-4,7,-4,7
2,3,1,5,-1,-6,-55,-9,7
-4,7,5,18,1,-2,16,3,7
0,-10,-9,-4,5,10,12,4,7
1,6,7,8,-5,-4,-9,-8,7
7,-13,-11,-9,-2,-6,-16,-1,7
1,0,1,7,-5,-2,-2,2,7
-4,-2,6,-21,-2,-6,1,-4,7
-9,-13,-10,10,5,11,14,1,7
-1,6,1,-8,0,-2,-1,2,7
5,4,-4,3,-4,-2,-5,-2,7
2,1,3,9,0,2,10,0,7
3,6,2,-5,1,0,1,1,7
2,-11,-4,-8,-4,-6,-18,-6,7
-4,4,7,2,3,4,-4,2,7
0,9,2,7,-3,-3,-1,-1,7
4,6,-3,8,2,0,14,6,7
-2,-12,-1,-7,1,4,-6,-4,7
-3,-34,-12,-19,-8,-5,5,2,7
-1,21,0,1,0,-1,-16,-3,7
-19,-9,-9,-3,-4,-3,-4,-5,7
5,9,11,17,4,-1,3,6,7
3,14,4,11,6,9,12,0,7
5,1,4,-7,-1,5,38,5,7
5,-8,-2,-11,0,3,-16,2,7
-10,-5,-7,-13,-5,-7,15,1,7
-6,-1,-7,2,-1,-3,-27,-9,7
-5,-9,1,9,1,-3,-11,0,7
5,-1,3,-1,2,-2,2,1,7
-5,-18,-3,7,-5,0,12,-1,7
11,37,1,-24,-4,-1,5,-1,7
-5,-42,-18,-11,-7,-6,-23,-11,7
-6,-3,-2,-8,-2,0,1,3,7
3,4,2,15,1,0,-8,1,7
-2,8,7,12,4,3,10,2,7
2,8,1,13,2,-2,-5,0,7
6,-5,-4,-31,-4,-2,3,1,7
-6,4,-2,-9,-2,-1,6,1,7
3,-3,1,5,-2,-1,-3,1,7
-2,3,-1,2,0,-1,1,0,7
7,-5,3,15,-1,-7,20,0,7
3,20,0,1,5,13,-22,-3,7
-3,-28,4,-2,-4,-9,2,0,7
-4,-1,-4,-1,0,4,2,1,7
-1,-4,-1,-4,-3,-2,2,-1,7
10,10,2,1,-2,-4,-4,1,7
-5,4,-1,1,1,-3,-13,-5,7
4,9,2,7,2,-1,-7,0,7
3,-3,-3,-6,5,5,9,7,7
24,-15,-2,1,-2,-2,0,1,7
3,6,5,9,-1,-2,6,-2,7
-17,9,-1,-18,-4,-2,-5,-3,7
4,7,-1,24,2,3,-7,-1,7
-12,-13,1,-1,2,2,8,1,7
2,3,-3,-18,-1,-6,0,-2,7
10,2,1,6,-1,3,9,4,7
1,5,-1,-5,-4,-4,-24,-7,7
-7,-5,-1,1,0,1,-3,0,7
-6,-5,-7,3,2,3,6,-1,7
0,0,5,-5,0,-5,3,2,7
-1,0,3,7,0,7,32,1,7
5,2,3,17,3,-7,-41,-9,7
-4,19,-1,-4,3,7,19,3,7
-10,-23,0,-20,-2,-8,-24,-3,7
0,10,-5,-6,-5,-5,-5,0,7
2,1,1,3,2,2,21,2,7
3,-1,-1,14,3,1,-10,0,7
5,-3,-1,5,2,0,8,-2,7
-4,11,2,-21,-2,-1,-6,2,7
-7,-2,-4,-11,0,7,23,4,7
-6,-3,5,8,-3,-7,-18,-7,7
3,7,-5,7,0,-1,-4,-3,7
8,-12,-5,-8,2,3,-2,-1,7
-13,-9,-2,5,-4,-12,-16,-1,7
6,10,3,-1,0,13,39,1,7
4,10,7,5,2,1,-21,0,7
-3,-3,-6,4,-3,-1,3,-2,7
6,10,0,-8,-5,-10,-18,-3,7
-8,-17,-3,5,-4,-4,-5,0,7
0,1,0,-10,-2,0,0,-4,7
-4,-9,-8,-16,-5,0,9,1,7
-5,-2,-1,3,-1,-2,14,3,7
27,-8,0,6,2,3,-23,0,7
5,31,3,11,-1,2,36,1,7
1,-22,-3,-7,0,1,-12,-6,7
-11,-21,-8,1,-2,-2,-4,-6,7
-3,19,-2,-38,-7,-8,-3,5,7
4,-2,6,21,-2,-4,-8,1,7
12,11,3,20,4,2,3,-1,7
-33,-19,-5,-10,1,1,2,-3,7
0,-14,-1,-1,4,1,2,-1,7
0,-1,-5,-7,-2,3,7,3,7
-8,6,2,-3,-1,-1,-12,-5,7
10,1,0,-1,0,3,15,2,7
-6,-5,0,6,1,-8,-14,-1,7
-2,-4,-2,6,4,-3,-17,-1,7
-1,-1,-1,-4,-7,-1,-20,-9,7
4,8,3,-12,-3,1,1,0,7
0,1,-6,-13,-1,3,25,1,7
-6,-12,-4,-3,-2,-6,6,2,7
-8,-24,-3,-2,2,-2,-11,0,7
7,34,9,7,-2,0,-4,-4,7
-15,-18,-3,10,-7,-2,7,-2,7
0,-10,-4,-3,-3,3,-8,-3,7
3,38,2,15,2,-2,7,4,7
13,-26,-7,-14,-2,2,-5,-3,7
-20,6,5,-12,-2,-3,3,2,7
1,-5,1,3,3,3,-1,-2,7
-6,-4,1,-8,0,-1,1,0,7
8,17,2,16,-1,0,4,1,7
12,13,-5,-8,3,0,4,0,7
-15,-38,-5,-9,-3,0,-7,-4,7
2,2,2,2,0,-5,21,7,7
7,12,0,-2,1,10,-13,-3,7
1,-3,0,11,1,1,-19,-7,7
5,16,1,-12,0,-1,7,5,7
4,-5,0,2,-2,-6,-12,-4,7
-3,-6,-1,1,1,-2,9,5,7
1,-5,-2,9,-5,-4,-1,-1,7
-4,12,-1,8,0,4,15,-7,7
4,16,5,-4,-2,2,-19,0,7
-2,-34,-12,0,-3,-6,4,1,7
-7,-5,1,-26,-5,-1,-11,1,7
0,-13,-7,1,-3,-7,0,0,7
-7,5,0,8,2,3,0,0,7
-2,8,2,4,-2,-1,-4,-5,7
0,-11,-5,-8,0,-1,-3,3,7
-1,4,2,13,4,4,5,0,7
2,-7,-3,-2,1,1,26,3,7
-6,6,0,3,1,-5,-42,-5,7
10,8,4,5,-1,-1,5,3,7
9,-3,-7,-16,-3,-2,-27,-9,7
-22,7,2,-2,1,4,26,1,7
8,-3,-3,-5,0,-9,2,3,7
-6,-9,0,9,1,7,-8,-2,7
7,13,8,14,3,-1,-11,-3,7
-1,-1,-8,-7,-3,-3,0,-2,7
-5,-14,7,18,0,1,13,3,7
1,5,-10,-32,-2,-4,3,0,7
-2,-6,-7,-6,-2,-5,1,6,7
0,-13,3,-3,6,6,-16,-6,7
-4,19,-3,-18,-5,-3,8,-1,7
8,20,2,16,1,4,3,-2,7
-16,-32,-9,-9,-6,-5,2,3,7
9,-4,2,9,1,-3,9,2,7
2,-7,0,1,5,-2,-37,-9,7
-4,7,0,7,0,-1,22,2,7
8,15,4,-11,0,2,-14,2,7
-19,2,0,1,-3,-1,5,0,7
0,-23,-5,-3,3,1,15,5,7
-4,-3,3,16,-2,-3,-26,-11,7
7,11,4,-6,-1,-1,33,5,7
7,-9,-5,3,1,3,-36,-6,7
0,13,12,-3,0,1,16,4,7
-3,-3,-3,2,1,6,13,2,7
-6,-1,-5,-14,-4,-1,-3,-7,7
5,1,0,4,0,-4,0,5,7
-7,-6,-9,-5,-2,-1,4,0,7
6,3,5,1,0,-3,12,1,7
0,3,4,6,-1,0,-36,-2,7
-1,-11,-1,18,-1,-1,-4,-2,7
3,6,1,-8,3,3,3,1,7
-1,-13,-22,-14,-7,-4,11,2,7
-1,14,8,7,-3,-2,9,3,7
-10,-16,-7,-14,-5,-3,-1,-1,7
-13,-11,-5,-4,-6,-5,-15,-4,7
4,6,16,17,5,6,5,-1,7
8,10,-4,-8,-2,1,11,2,7
7,-3,-6,0,1,-4,-9,4,7
-1,2,8,8,5,5,-12,-16,7
-4,1,-5,9,-2,-8,-8,-2,7
11,0,2,-4,-2,3,-2,0,7
7,0,1,-6,-3,-5,14,6,7
-15,-5,-6,-2,-5,0,1,1,7
-3,-3,1,7,2,-2,-11,0,7
-6,-1,-3,10,4,-3,-6,1,7
5,-4,3,-17,-1,7,7,-1,7
17,37,-1,-9,-3,-2,5,1,7
-8,-46,-10,-6,-2,2,8,0,7
-1,1,0,3,-2,-7,-3,-1,7
-2,-2,-3,6,4,1,27,2,7
-10,-17,-5,1,4,8,-30,-12,7
0,19,7,-3,-3,-2,17,3,7
-7,-10,-2,10,0,-1,1,-2,7
1,3,-1,-4,-6,-7,-5,-1,7
1,3,-5,-16,-1,-4,8,7,7
0,-7,-1,5,7,3,-3,-4,7
-6,-2,-3,-5,-3,2,15,0,7
0,12,8,13,-2,-6,-47,-12,7
2,-5,-6,-11,-4,-1,22,4,7
4,-1,-3,-8,0,-1,-14,-2,7
-4,2,0,5,3,4,9,1,7
-9,9,5,13,0,2,4,-1,7
7,14,-1,-6,-5,-4,23,9,7
-4,-12,11,-2,-1,1,-49,-7,7
-5,-9,-10,-7,-3,-7,-3,-4,7
-14,-4,-5,-2,0,1,-5,-4,7
11,13,5,12,2,-1,-3,4,7
3,9,-3,-2,-3,3,38,11,7
-2,-2,10,9,-1,3,-7,-8,7
3,-9,-3,-7,4,-3,-12,-1,7
-1,3,-4,-4,-3,1,23,-3,7
-4,2,6,8,-2,-7,-34,-4,7
1,-4,-6,2,0,1,-6,-1,7
8,12,2,-8,-2,-3,10,0,7
4,8,11,16,6,5,20,8,7
-12,1,-8,-8,-10,-11,-24,-13,7
-5,-17,-5,-15,1,1,-6,0,7
5,8,1,0,-1,-2,-10,-1,7
1,-2,3,16,6,2,2,4,7
3,0,-1,5,2,1,15,7,7
2,0,1,3,-2,-3,-9,-4,7
9,-8,-3,-9,-1,0,19,1,7
-23,-8,-4,-5,-4,-3,-34,-9,7
2,-5,-2,-6,-4,-2,13,3,7
1,6,-2,-9,-3,-4,-8,-1,7
3,10,9,22,1,1,1,-3,7
3,1,-1,-15,-2,8,30,0,7
1,-1,-5,-1,1,-2,-21,-2,7
5,1,3,-9,-6,-6,7,1,7
1,5,-5,9,2,4,12,1,7
0,-10,-1,2,2,-3,-33,-6,7
3,25,5,-19,-3,1,11,1,7
3,-16,-6,14,-2,0,9,5,7
-14,-14,-4,-19,-4,-2,-2,1,7
0,-1,-1,5,-1,-3,2,1,7
6,3,0,12,10,3,3,-2,7
-1,16,2,-18,1,2,-6,-3,7
1,-2,-2,0,-1,2,20,3,7
-7,-7,-2,-11,-6,-5,-23,-5,7
-7,-14,2,9,-2,-7,7,1,7
1,11,2,3,3,3,-15,-2,7
1,-8,-2,2,5,2,-7,-3,7
-2,-3,2,1,-2,-1,9,4,7
2,-2,-12,-7,-6,-5,-2,-5,7
4,4,6,3,-1,0,12,8,7
-10,-13,-7,-19,-4,-2,5,-3,7
-6,-5,-1,5,0,-5,-34,-7,7
1,8,3,6,0,0,2,2,7
3,-4,-7,-1,1,2,3,1,7
-5,-15,-3,-18,-2,-1,-7,-3,7
4,10,5,4,-3,-2,13,3,7
-3,-9,-6,1,0,0,11,-4,7
-3,-6,-3,-10,-2,1,-16,-1,7
6,15,1,4,2,-1,-6,0,7
-8,0,-1,-8,-5,-4,9,-2,7
3,9,6,23,8,0,-2,4,7
-1,-2,-4,-20,0,3,24,-2,7
1,1,-1,8,2,2,-19,1,7
0,-13,-4,-22,-3,2,5,-2,7
-3,9,7,10,-2,-1,1,4,7
-2,-7,-1,12,0,-7,-23,-7,7
-6,-5,7,3,-2,-3,6,2,7
4,6,-13,-3,-1,2,1,-1,7
4,-9,6,9,0,3,7,1,7
2,-5,-4,-19,1,1,5,-1,7
2,21,5,1,-4,-4,-7,0,7
-6,-30,-4,13,-2,-4,1,0,7
-3,-5,-7,-24,-1,0,-5,-3,7
-5,-4,-1,7,2,1,1,2,7
9,10,0,5,-2,0,-3,-2,7
0,-4,3,10,5,0,7,2,7
-4,-4,-8,-24,-6,-1,-2,0,7
0,15,9,33,4,-1,0,-3,7
1,-5,-6,-26,-8,-5,2,7,7
0,-3,0,12,0,2,-14,4,7
-1,-2,5,4,0,2,35,-2,7
-7,-6,-6,-37,-7,-6,-48,-6,7
-6,5,-1,22,-1,0,8,-2,7
9,13,8,-3,1,-5,-20,1,7
-6,-31,-13,0,2,0,3,-2,7
-8,-5,3,10,1,5,29,4,7
0,-3,-13,-10,-1,-2,5,-2,7
1,1,4,-5,-1,0,-10,-4,7
7,21,4,7,0,2,-4,1,7
9,0,1,3,-2,-1,12,2,7
-4,-14,-2,-2,0,0,-9,-1,7
-2,1,-1,5,1,1,20,1,7
3,-5,-3,-3,1,-1,-28,-4,7
3,14,4,-9,-7,-3,15,5,7
3,2,-2,-7,-1,-2,-10,-3,7
-2,-9,-7,-9,-1,1,3,-7,7
-13,0,-3,7,-4,-4,2,3,7
-11,-16,10,24,2,2,7,2,7
-2,0,-10,-23,-2,-6,-16,-3,7
7,4,-5,-1,-2,2,30,6,7
5,23,2,-10,-2,-1,-32,-4,7
-14,-29,-14,2,-4,-4,0,-3,7
1,-4,4,17,5,4,6,0,7
1,7,1,1,-4,-1,-5,-6,7
2,4,5,-8,-1,0,18,5,7
5,14,-2,-14,2,3,0,-2,7
8,-11,-4,-18,-3,0,3,2,7
-12,4,4,15,4,-1,1,-2,7
1,-11,0,3,-2,0,9,2,7
-5,-1,-1,14,3,4,-3,-4,7
4,1,2,-2,-1,-5,-16,-6,7
15,6,2,-4,-2,-1,30,6,7
-18,-13,-1,-5,-5,-2,-10,-6,7
3,18,-3,-7,3,-5,-11,0,7
-4,-23,-2,6,-1,3,-5,0,7
-7,-10,-1,17,-2,-3,-19,-3,7
2,10,4,9,-1,-2,1,-3,7
6,17,2,-24,-5,-1,1,4,7
-11,-6,3,11,0,1,29,4,7
4,7,-4,-6,-3,-4,-30,-4,7
2,-11,0,10,3,4,13,2,7
1,2,2,5,-2,1,-9,-1,7
3,9,-2,-6,1,1,1,1,7
-6,-13,4,-24,-2,-1,6,3,7
4,17,2,-3,3,0,0,2,7
3,6,5,7,0,-3,-4,-2,7
-7,-14,-7,3,-3,-1,4,1,7
-3,9,0,0,-2,-3,-9,0,7
-2,-9,-8,-5,0,0,-1,-4,7
5,0,4,0,2,-2,1,1,7
6,0,-5,8,1,-1,-10,-3,7
-3,-2,4,0,-2,1,24,5,7
14,-5,-5,-12,-1,0,-14,-5,7
-17,-9,4,13,1,-2,-22,-5,7
-3,11,-2,-6,-2,-1,14,0,7
-4,-8,-5,-5,-1,1,-7,1,7
8,3,-1,-8,1,1,-4,0,7
6,3,-1,19,2,0,22,3,7
-11,-7,11,22,3,-1,-26,-7,7
0,1,-14,-7,0,0,-4,-5,7
2,-2,0,-14,-4,-2,9,5,7
9,3,2,4,-4,-2,5,-5,7
-5,12,0,-10,0,1,-16,-2,7
-2,-13,-2,10,0,-3,-10,-1,7
-21,-10,2,13,2,-3,18,-4,7
2,0,-9,-22,-4,0,9,10,7
8,-6,2,8,-2,-3,-53,-11,7
9,25,8,5,4,5,7,0,7
3,-2,4,1,-2,-7,-15,0,7
-14,-20,-7,-8,-1,-1,21,3,7
0,-1,2,-4,0,2,21,5,7
5,-2,-4,-5,-3,-2,-11,-3,7
-11,2,0,2,-3,-3,3,2,7
0,-4,1,11,3,2,0,-5,7
2,-1,-1,-2,5,2,3,4,7
0,-6,-6,-20,-5,-3,1,-2,7
9,13,6,0,-4,1,-2,-4,7
-3,3,3,9,-3,-3,-13,-2,7
-5,-11,-10,-18,-5,0,7,2,7
-2,1,4,13,3,2,14,6,7
-3,-7,-6,-4,-2,-2,-11,-3,7
0,-7,-5,-5,2,2,-17,-1,7
7,6,2,8,2,5,63,10,7
-3,10,4,-13,-6,-8,-52,-13,7
-3,-15,-4,1,3,3,-15,-4,7
5,0,-1,-9,-1,-3,-18,-6,7
10,22,4,8,-4,-2,10,3,7
1,-20,-8,-5,3,2,17,3,7
-19,-6,-1,11,-4,-7,-1,0,7
-6,-9,-6,-18,-4,-1,2,-3,7
-27,-5,3,28,4,-1,-7,-4,7
13,1,2,-7,-2,1,5,1,7
14,1,2,2,1,-4,-22,-1,7
6,22,7,21,3,3,23,0,7
-2,5,-6,-23,-11,-5,-12,0,7
-14,-14,-3,2,-1,-3,-1,-1,7
3,-4,-5,2,4,10,38,4,7
-1,-9,1,-3,-3,-8,-39,2,7
5,-1,-7,1,1,7,1,-9,7
-1,12,2,11,6,-1,13,3,7
-1,-11,3,-18,-7,-2,-21,-3,7
1,18,1,2,2,-4,19,4,7
1,-16,-4,-12,-8,-5,-13,-2,7
1,-2,-2,10,1,3,7,2,7
-9,12,-1,-4,-1,0,3,-1,7
4,-5,-3,6,6,5,11,0,7
3,4,8,16,5,-2,-7,-3,7
1,-4,1,-23,-6,0,4,-2,7
-4,1,-12,-7,0,0,5,5,7
1,5,1,0,-1,-3,-25,-5,7
4,-2,-3,-17,-1,-1,25,2,7
3,8,7,30,1,5,-17,-2,7
-5,-3,7,20,-1,-1,-3,-1,7
-11,-22,-8,-28,-1,2,5,-4,7
1,25,3,-8,-1,-4,-20,-1,7
6,-1,4,15,-1,-2,7,2,7
6,-4,-7,-1,-4,1,13,0,7
-10,-3,-2,9,3,-1,-15,-6,7
3,-7,3,-2,2,2,4,-2,7
-3,3,-3,-9,1,-3,1,-4,7
10,4,-2,-11,1,4,11,5,7
-1,-19,0,16,-1,-4,-7,-1,7
-21,11,-2,-22,-6,-4,-7,2,7
-2,7,-1,-4,-5,4,19,-1,7
-4,-8,-3,2,2,-2,-6,-2,7
3,4,3,0,-2,5,8,0,7
-2,-13,-8,8,0,-1,17,3,7
-3,2,-2,-5,-3,-3,-16,-2,7
4,6,12,-5,2,-3,-20,-2,7
-2,3,-8,-2,0,1,5,0,7
5,-5,6,11,0,0,6,3,7
-1,3,-6,-8,5,6,17,2,7
7,0,1,18,-4,-6,-7,-3,7
-2,-4,-5,-23,-5,0,2,0,7
4,-6,-2,6,0,0,-1,2,7
11,3,2,-5,-3,-3,0,1,7
-16,-4,-7,-9,-1,1,5,2,7
-13,0,5,-2,0,6,14,-7,7
4,-15,6,15,-1,1,9,0,7
-7,15,-12,-12,-1,-2,2,-3,7
1,-8,2,-4,1,0,-27,-2,7
2,-6,-7,-1,-1,-5,15,4,7
3,-9,3,-12,-3,-2,-16,-5,7
-5,2,5,6,1,1,3,1,7
4,8,-5,-12,-7,-5,7,-2,7
3,1,2,15,2,2,-1,1,7
0,2,0,0,1,1,-7,-1,7
0,-13,-2,10,1,-3,-4,0,7
1,9,-2,-5,0,-1,9,1,7
2,-7,-2,-9,-2,-1,5,4,7
2,5,-3,7,-3,-1,-4,1,7
-7,2,-2,-21,-1,5,-6,1,7
-1,2,9,28,3,-3,-10,-4,7
-3,-3,-6,-21,-8,-4,-11,-7,7
-19,1,-2,-12,1,2,10,0,7
7,-7,-4,14,-1,-10,-13,0,7
10,8,0,-11,3,10,16,0,7
9,32,12,9,1,-4,15,6,7
-3,-10,-13,-10,0,-2,-15,-3,7
-7,-15,1,24,0,0,2,1,7
-21,-13,-4,-4,3,0,-15,-6,7
3,5,2,-2,-4,-7,7,3,7
5,5,0,2,1,2,-28,-9,7
5,0,4,1,3,1,20,9,7
9,2,-4,0,1,5,-5,-6,7
1,-6,-2,-4,2,-3,-16,-1,7
-1,7,2,5,-2,-5,6,-1,7
-4,-11,-7,-11,-3,-5,-19,-5,7
-4,1,5,12,-4,-6,10,3,7
-3,-3,-7,-1,-2,2,6,0,7
9,3,0,-9,2,-2,0,2,7
-3,-8,2,1,-5,-1,6,-4,7
0,0,-4,6,2,2,-19,-1,7
6,6,7,6,-2,0,15,3,7
-3,19,-11,-27,-5,-6,-10,4,7
-13,-31,-3,5,-2,-4,-12,-8,7
3,8,-1,-6,-4,1,-4,-2,7
4,-3,0,14,3,1,-15,-2,7
-2,-2,2,-1,-1,1,24,4,7
4,9,5,15,1,-1,10,-2,7
-1,-11,-5,-3,0,-2,0,0,7
5,-4,-2,-5,-2,1,-7,-1,7
6,8,2,1,1,-1,9,0,7
3,17,5,9,1,1,-20,1,7
-9,-18,-1,-16,-1,-2,16,2,7
-10,-4,-5,-4,-3,0,-2,1,7
-5,-18,-4,3,-1,1,8,-1,7
2,7,-2,-5,-1,-1,2,1,7
-6,13,3,6,0,-4,-24,-3,7
-2,-20,-3,-5,-3,1,0,2,7
-1,12,0,9,0,-8,-19,-3,7
-2,9,5,4,3,8,12,-8,7
3,-11,-4,-2,-4,0,14,2,7
-3,0,-1,-25,-2,-3,-6,-4,7
3,-14,-10,9,-1,-3,4,1,7
1,10,-1,-11,3,-4,-17,1,7
6,6,2,-6,-6,-8,-12,-5,7
-9,-24,-1,5,1,4,17,2,7
-16,0,0,13,2,2,-27,-3,7
2,4,-4,-15,-7,-7,6,-2,7
-6,-15,-7,-1,2,-1,-5,-2,7
7,17,4,6,0,-5,26,5,7
12,3,9,5,-2,1,-28,-5,7
-6,-1,-2,-7,-1,6,6,5,7
-1,0,-5,-8,-1,-1,12,0,7
16,15,3,4,3,-6,-3,3,7
-9,-10,2,-4,2,12,16,-4,7
-10,-5,0,3,1,-6,-8,0,7
-7,1,-2,-4,-1,6,23,1,7
-5,1,-5,-5,-4,1,-16,-3,7
2,5,3,5,-1,-4,2,4,7
8,-22,-4,-7,-2,-1,13,0,7
-5,-6,-1,-2,0,-3,-30,-7,7
-1,11,-5,5,-1,3,8,2,7
4,8,4,9,0,-3,-3,-3,7
1,-2,1,-13,1,0,19,1,7
2,0,1,-1,-3,-3,12,3,7
-11,-24,4,24,2,-3,-50,-5,7
5,26,-8,-44,-8,7,34,0,7
1,-10,-4,-1,-3,1,1,-1,7
2,4,-2,-1,1,-1,-1,6,7
-1,3,0,0,1,6,14,-3,7
-5,-9,-2,10,-1,-5,-17,-4,7
8,7,3,5,0,-6,-8,-1,7
2,-8,-2,-7,-1,4,3,-3,7
-10,8,-3,3,-2,-2,13,-1,7
5,-22,-10,3,1,-2,-8,3,7
-6,2,4,-15,-6,1,4,-2,7
8,4,3,7,2,-1,-2,3,7
1,0,-2,-2,1,0,4,-2,7
6,3,1,2,-2,1,10,3,7
-1,0,-2,9,6,1,-23,-6,7
-4,6,2,-3,-4,-3,9,2,7
4,-1,-4,-5,0,-1,-13,1,7
-8,-10,5,7,0,1,23,2,7
2,19,2,3,1,2,-2,2,7
0,0,10,8,2,-2,-4,0,7
7,16,-11,-17,-3,-4,23,0,7
-14,-20,4,0,0,-5,-45,-22,7
-1,-2,0,9,3,-1,20,3,7
13,2,-1,-4,5,5,-5,4,7
20,8,7,5,-3,-9,-28,4,7
-2,-9,-3,0,-2,2,35,9,7
1,-9,2,-1,1,3,-18,5,7
-1,13,-1,1,-2,4,17,-9,7
-5,-16,-1,2,1,0,-16,-2,7
1,24,1,-3,4,1,-4,-1,7
8,4,-2,-8,-6,-4,-5,-5,7
0,-9,-5,-2,-3,-3,12,6,7
-11,-18,-3,-6,-3,0,-4,-7,7
-12,-14,2,5,3,0,19,4,7
15,35,-2,-1,1,3,-7,4,7
-12,-11,2,18,-1,-10,19,5,7
-5,-12,2,-19,4,16,-27,-18,7
-6,-3,-9,-9,-11,-13,-32,-2,7
-1,-14,-3,2,-5,-4,2,5,7
15,32,1,-20,-4,-3,3,3,7
-9,-14,-4,6,0,0,18,3,7
1,-9,-3,-8,3,1,5,6,7
5,-1,5,3,-2,0,-3,-3,7
1,3,-2,3,-1,0,-16,-3,7
5,15,4,8,0,-4,8,6,7
-1,4,0,4,4,1,-6,-3,7
-6,-6,-5,-4,-3,-6,9,4,7
-3,-14,-2,-3,1,6,21,-5,7
-6,8,-1,0,1,5,-34,-5,7
12,0,-3,-1,-2,3,15,0,7
-21,-10,-4,-2,-1,-3,-5,-1,7
-7,-6,-1,2,-2,-4,7,4,7
-2,2,1,-1,-2,-4,1,-3,7
13,21,5,-1,2,1,1,4,7
1,-42,-9,0,-1,1,-7,-2,7
-26,12,0,7,1,0,-7,-4,7
-4,2,15,-1,-2,-2,21,5,7
0,11,-15,-31,-12,-11,-23,-6,7
-9,-3,-2,-2,-1,-1,9,0,7
14,-7,-3,4,3,1,-20,-1,7
4,-6,0,4,0,-2,9,-1,7
9,12,6,11,5,1,5,4,7
0,12,0,-4,-1,-2,-6,-3,7
2,-4,-4,-4,-4,0,13,0,7
-9,-13,-4,3,2,-3,-20,-7,7
-11,-16,-1,4,0,1,3,0,7
-7,3,-7,-6,3,1,0,-2,7
8,3,9,7,3,9,30,6,7
9,27,-4,-8,-9,-10,-25,-6,7
6,-28,2,6,0,3,-16,-2,7
-20,13,0,4,4,-2,-8,-3,7
-6,-11,0,-10,-7,-6,-5,0,7
-2,2,-2,-3,3,1,21,7,7
6,-6,-1,31,0,-1,-2,0,7
-4,-16,5,1,2,0,8,0,7
16,25,-11,-49,-11,-3,-17,-3,7
-6,-14,-2,-7,-13,2,12,4,7
-12,0,-11,-5,12,-1,3,-1,7
10,0,2,9,1,0,1,0,7
-7,-6,0,23,6,1,-6,-1,7
8,8,-1,-10,-2,-2,-1,-2,7
2,23,14,5,-4,1,34,7,7
8,-23,-9,-11,-3,-6,-53,-11,7
-9,-2,-1,7,2,0,-7,1,7
-12,-19,-9,-25,-1,-5,5,0,7
-1,-2,5,9,1,3,12,-2,7
-11,1,-8,-17,-8,-5,-6,-8,7
8,23,8,12,1,4,-35,-6,7
12,-4,-3,7,3,-2,10,4,7
-5,-4,-4,-11,-4,1,19,4,7
10,4,6,3,-3,3,1,2,7
-8,-23,-3,1,2,-7,-13,1,7
-6,10,-2,18,2,8,11,-4,7
15,18,-2,-21,-4,-2,-13,-2,7
-6,5,5,4,0,1,15,5,7
-25,-21,-5,-4,0,-1,3,-1,7
-1,-4,3,9,0,-1,-1,5,7
-1,-4,-4,-2,-6,-7,-20,-7,7
5,3,4,2,-1,3,9,1,7
2,-6,-2,-4,-2,-4,10,-4,7
3,20,4,26,-1,-3,7,3,7
-5,-8,-6,-42,-6,-2,-58,-14,7
6,15,2,0,-2,-1,16,5,7
0,-9,-1,0,-1,-4,-6,0,7
-4,-9,-6,1,2,-1,-7,-3,7
0,-8,7,16,0,1,14,5,7
7,6,-3,-1,-2,-2,-11,0,7
-2,13,4,-4,-1,4,31,2,7
-2,-2,-1,-3,-1,-3,-14,-2,7
-11,-10,-2,9,5,-2,-5,0,7
-12,-10,-5,-4,0,7,14,-2,7
13,11,-2,4,0,0,8,1,7
2,-5,-1,-5,0,-1,-8,-3,7
-10,-12,-2,1,-2,2,-2,-2,7
3,1,2,1,4,3,5,-1,7
-1,4,1,22,-3,-5,-7,0,7
-3,3,1,-39,-3,4,-1,3,7
-5,-3,-1,-1,-1,-4,5,1,7
-3,2,2,5,0,-4,2,-1,7
0,-10,-2,-2,0,1,-14,-2,7
6,7,-1,9,2,0,18,2,7
5,2,1,19,0,-1,20,2,7
-9,-5,-3,-26,-5,-7,-46,-10,7
-10,-11,-6,-8,-2,-4,-13,-4,7
2,-3,0,17,5,4,25,5,7
4,7,2,8,0,-4,-5,-3,7
5,7,1,0,0,3,14,4,7
10,0,-3,-8,-2,1,10,-2,7
-4,-9,2,1,2,2,2,-5,7
-10,6,6,9,0,-4,-34,-10,7
-3,-4,-11,-5,-2,-7,6,-1,7
-3,0,5,18,3,10,13,3,7
-3,2,-6,-25,-6,-2,-10,-3,7
10,2,-4,-1,-2,-1,22,7,7
-4,14,5,6,-2,-4,-19,-4,7
5,0,-1,-8,0,-6,-9,4,7
-4,-6,-4,11,-1,2,7,-1,7
7,2,3,-3,0,-3,0,3,7
-4,-3,-2,-3,-2,-1,-5,0,7
6,-2,-3,12,1,2,11,0,7
-1,-3,5,-2,1,-3,-15,-2,7
-11,-11,-8,-44,-6,-2,14,6,7
-9,-6,0,9,1,3,-10,-2,7
-2,-1,0,2,2,-2,-6,-3,7
6,8,2,6,-2,-3,-3,1,7
2,4,-4,2,1,5,5,1,7
8,1,3,6,1,2,45,7,7
-2,-7,5,0,-4,-2,-54,-9,7
-7,6,-2,-29,-5,3,14,-3,7
-2,2,-2,10,5,3,10,0,7
10,1,-5,0,0,3,-2,-1,7
-2,-3,1,0,2,-1,15,5,7
6,0,2,14,2,1,-12,-3,7
-6,-9,-5,-10,-2,1,15,-2,7
1,5,2,0,-1,-3,-28,-7,7
3,-2,-3,-9,-1,0,12,2,7
-5,-10,1,5,-2,-5,-9,-2,7
5,12,2,2,-3,-1,3,-2,7
-5,-11,2,25,4,2,4,1,7
-10,-8,-9,-33,-5,-3,-7,-2,7
-5,-3,-4,-6,-6,-4,18,0,7
-11,-10,-4,12,3,-7,-53,-17,7
22,31,5,-14,-6,2,9,-4,7
6,-10,4,8,0,-2,-6,0,7
-12,-1,1,12,0,-1,7,5,7
6,3,0,-10,-1,5,7,5,7
-8,-9,2,14,4,-3,-3,4,7
2,13,-3,-15,-2,4,4,-1,7
2,-2,-4,-2,-3,-2,0,0,7
-6,-7,6,14,0,1,1,3,7
-1,-5,-4,-15,-1,0,2,-2,7
0,-2,0,3,-1,1,15,3,7
0,-1,2,7,1,-4,-10,0,7
-3,2,-2,2,-2,5,14,-2,7
-3,-7,-3,-9,-2,-2,-13,-1,7
-6,1,-1,0,1,-2,-4,-2,7
0,-6,0,2,0,1,-7,-2,7
5,4,-3,-7,0,1,3,1,7
0,0,5,3,0,-4,1,-1,7
10,0,-1,9,0,5,21,5,7
-13,-4,-4,-5,-7,-8,-37,-13,7
9,2,4,11,5,9,29,8,7
-15,-10,-11,-10,1,-1,-18,-2,7
2,10,9,1,-3,-5,-12,-1,7
18,4,-8,-5,1,0,3,2,7
-6,15,4,-5,-6,-5,5,1,7
-3,-2,-4,1,-1,1,8,-1,7
7,-4,-2,6,1,2,-4,-3,7
2,4,-1,-10,-2,-1,12,0,7
-11,-11,0,-1,-2,-5,-18,-3,7
-12,-4,-4,1,1,2,16,5,7
-8,2,-1,-1,-1,-4,-4,-2,7
6,2,3,3,3,2,-2,1,7
4,-7,-3,-1,0,-2,-4,-3,7
2,9,3,0,0,-1,4,2,7
-5,-14,-7,-7,-5,-3,2,-2,7
-11,0,-1,0,1,1,-8,-4,7
-2,-7,3,6,-2,-3,-8,1,7
8,1,2,2,2,4,11,2,7
-5,6,-1,-6,-5,-3,-6,-1,7
1,-1,-3,8,5,-1,8,4,7
-6,-5,-7,2,-5,-3,-24,-8,7
3,5,3,4,4,3,6,0,7
4,20,-1,-11,-6,-6,-1,-3,7
-12,-12,-3,-8,1,3,6,1,7
7,13,7,-1,1,2,7,4,7
2,-2,-13,-4,-2,-5,0,0,7
0,-16,-1,5,2,2,-2,-1,7
-3,7,1,5,-5,-4,2,-1,7
4,-5,-5,8,4,-2,-16,-30,7
0,3,17,1,-1,1,2,-10,7
-1,2,-2,-3,1,-2,5,5,7
7,1,0,-5,-3,-3,-7,11,7
-2,-5,-3,-5,0,7,40,23,7
-5,-2,-2,-4,-5,-10,-49,-1,7
-4,-2,-7,-3,2,3,-5,-3,7
-1,-9,3,3,-2,1,3,3,7
4,10,0,-3,-3,-7,-5,2,7
0,-17,-8,-4,1,0,17,1,7
-11,-1,5,4,4,4,20,5,7
-2,-2,-3,-2,-2,0,-29,-13,7
6,16,2,-8,-5,-4,-6,-1,7
2,-7,-2,2,-1,0,6,0,7
-2,-6,-4,0,-1,-3,-4,-1,7
-3,-1,3,0,-1,-3,10,-5,7
-2,-9,-4,-2,1,-1,1,1,7
0,1,-1,5,0,-1,8,2,7
11,21,5,-3,1,0,-17,0,7
2,5,-4,-1,3,1,23,2,7
-15,-19,-4,-5,1,4,-15,-7,7
-5,-4,-3,2,-1,-5,-16,-3,7
-2,-7,0,2,-1,-2,1,0,7
13,11,3,3,1,3,5,2,7
10,-2,0,8,-1,-5,-7,3,7
-22,-17,-5,-9,-4,1,20,-1,7
-1,-4,0,12,4,3,23,6,7
4,7,-5,-18,-2,-7,-41,-6,7
-10,1,7,-9,-2,0,6,6,7
8,-7,-4,2,-4,0,-2,-4,7
3,-1,-2,5,-2,-2,0,0,7
0,-7,1,6,1,2,14,0,7
3,8,0,8,3,0,-7,-1,7
2,-4,5,-7,1,0,6,2,7
-5,9,1,3,-3,-1,-4,-1,7
-3,-18,-4,2,-4,-2,7,5,7
0,12,1,3,5,2,13,-4,7
-2,-2,0,-1,-6,-8,-29,-3,7
-6,-12,-5,-4,-1,-1,-5,-1,7
3,6,2,2,-2,-4,-1,-2,7
-7,-10,-6,-6,-4,-1,-7,-2,7
9,8,11,24,8,3,22,7,7
11,5,-7,-21,-3,7,-1,-7,7
-8,-5,-5,8,-2,-7,20,4,7
-10,-17,-1,-9,-2,-9,-59,-11,7
3,27,-1,-11,-5,-4,2,2,7
-6,-16,0,2,-2,-4,-11,-2,7
12,3,-1,-3,-1,3,29,7,7
-10,-5,-4,4,5,0,7,1,7
15,23,7,5,-2,2,-8,-2,7
-12,-22,-9,2,0,-4,8,-1,7
-10,0,0,-25,0,7,-1,-2,7
2,-1,-2,-4,-3,1,1,-1,7
9,-2,0,1,-3,1,5,0,7
-9,9,-1,2,1,-1,-1,0,7
3,-3,3,8,3,0,-14,-4,7
6,0,1,-3,1,1,2,4,7
-8,-8,-5,-6,0,-2,27,1,7
6,12,7,9,-2,-4,-27,-7,7
-5,-10,-4,-7,3,1,-9,-5,7
11,13,2,0,-2,1,43,9,7
2,-10,0,5,4,12,-26,-4,7
-13,2,0,-3,1,-1,13,1,7
-5,11,-2,3,-11,0,-6,-1,7
-2,-42,-12,4,8,-3,5,0,7
-5,20,3,-13,-3,-4,7,1,7
0,7,3,4,3,-2,-4,1,7
0,8,2,-1,-2,0,-8,-3,7
4,5,2,8,2,3,8,2,7
-10,-24,-7,-2,-8,-3,-4,-1,7
2,16,4,-8,2,-2,-5,-1,7
3,-8,0,9,2,-1,3,2,7
1,17,1,3,-5,-2,-7,-4,7
-2,-10,-3,-2,0,0,-1,1,7
8,2,2,0,-3,-2,0,0,7
1,-1,-1,-3,-1,0,-1,2,7
0,3,1,-2,-5,-2,0,-2,7
-4,3,-4,3,5,-4,-16,-3,7
3,-7,-4,0,-3,1,14,8,7
-8,-1,1,12,3,-3,5,-15,7
3,14,0,-20,-5,-5,-24,-8,7
-17,-30,-8,-11,-3,-3,9,2,7
4,-6,2,13,1,2,-1,4,7
7,0,-3,3,7,-2,1,4,7
-2,8,0,-9,-4,1,8,5,7
-5,-3,-8,-3,-8,-2,-9,-2,7
1,13,5,-6,3,-2,-5,-1,7
-3,2,5,10,2,1,5,5,7
3,-1,-3,0,-1,-3,9,-3,7
1,-4,-1,-8,-2,-2,-21,-6,7
-4,-25,-8,-6,-8,4,7,-4,7
12,22,7,-1,-3,0,1,1,7
-6,6,1,-1,1,-2,17,7,7
-7,2,2,7,0,-1,-28,-6,7
-1,-17,-7,-1,1,-1,28,1,7
5,3,-3,-2,2,-1,-20,-1,7
-8,-12,7,-4,-8,2,-1,-1,7
-4,6,0,8,-1,-4,-17,-3,7
0,-3,-7,-5,-2,-5,-5,-2,7
-2,-3,-3,-14,-1,-1,3,0,7
1,-9,-1,9,1,-1,9,1,7
9,20,2,-3,0,3,20,6,7
2,-6,-1,-1,-4,-3,-16,-4,7
-8,7,-1,9,0,0,7,4,7
-2,-12,-1,-11,-2,-2,-17,-2,7
1,-2,1,1,8,1,14,-1,7
1,10,3,10,-2,1,1,2,7
-5,-11,-3,-8,-3,-1,5,-1,7
-2,5,-2,2,1,0,-22,-8,7
4,3,-4,-4,-2,-1,8,2,7
-9,-4,9,11,-1,1,1,-1,7
4,-6,-5,-17,3,1,-8,0,7
-14,-3,6,8,-3,-1,3,-2,7
2,-7,-13,1,-2,0,39,7,7
3,8,2,-14,-3,-2,-43,-6,7
-4,-4,0,-4,-2,0,-2,-6,7
3,-3,-5,18,1,1,-14,0,7
-4,6,4,-8,1,3,-8,-7,7
4,4,-2,-2,5,1,19,6,7
2,0,7,4,-9,-2,2,9,7
3,-3,2,-4,-5,-2,6,-5,7
-3,15,3,11,9,-1,-5,-3,7
1,-4,-4,-4,0,1,-4,-3,7
0,1,-3,-3,-3,-3,-8,-1,7
4,-3,0,0,2,0,10,5,7
2,-6,2,7,3,2,5,1,7
4,6,0,-10,-2,-3,-2,-4,7
-11,-4,6,11,-9,-3,-4,-5,7
2,8,-11,-6,9,1,-1,3,7
2,-11,-3,-16,-10,-4,-4,-2,7
-5,-2,-1,2,1,-1,6,3,7
0,-5,-1,7,3,0,-8,-11,7
1,1,1,-5,-3,-1,-5,0,7
1,-3,4,9,3,2,7,6,7
8,25,-1,-4,2,-1,0,3,7
-6,-11,-5,-4,-2,0,-1,2,7
-6,-1,-1,-2,-1,-1,-5,-7,7
2,-7,-3,-3,-1,-1,5,1,7
3,1,0,2,-2,1,2,-2,7
9,1,-3,-4,0,-1,-2,-4,7
-3,-10,0,-3,-2,-3,-17,-1,7
-4,-3,-1,-1,3,6,30,7,7
-9,-10,-1,1,-2,-6,-23,2,7
-2,10,-6,-2,-4,-2,-11,-6,7
8,9,0,9,9,-2,5,-4,7
-9,-8,6,2,-8,-2,-5,-4,7
-6,-7,2,-6,-8,-2,11,-4,7
-4,-19,-16,-5,0,0,14,6,7
2,0,-7,-8,-2,-1,-6,6,7
-1,5,-5,-3,-2,0,2,-2,7
6,-3,3,-2,0,1,5,-3,7
1,-3,6,7,2,-2,-8,1,7
-2,0,-2,-3,-6,-4,31,6,7
5,6,2,7,0,2,-29,-9,7
-6,-15,-3,0,6,4,6,2,7
-5,7,5,-5,0,2,-7,-7,7
-5,-5,-2,-1,-3,-5,-2,-3,7
2,-3,0,0,-1,-2,12,7,7
5,6,-1,0,1,3,-11,0,7
11,9,-5,-4,1,-2,3,-2,7
-10,-6,5,4,-1,9,-4,-3,7
-7,-1,0,9,3,-5,5,-1,7
-3,2,-2,-1,-5,-2,1,-2,7
1,12,7,7,4,-2,1,3,7
10,11,-10,-31,-8,-2,23,2,7
5,-26,-11,-1,-5,-1,-29,-6,7
-24,-10,-7,-2,-2,-5,-7,-6,7
4,-2,6,3,2,1,-1,3,7
-8,6,5,7,8,-1,7,1,7
2,3,-3,-1,-7,-3,-5,4,7
3,-9,-4,2,6,0,-3,-4,7
-6,-7,0,2,2,3,6,0,7
12,6,4,6,-3,2,-6,1,7
-6,0,0,-6,1,-2,9,-1,7
2,4,2,3,-1,0,-3,-3,7
2,0,-3,-7,-4,-2,20,4,7
1,-3,1,6,1,-1,-37,-6,7
1,9,1,-5,-1,-2,-4,-3,7
2,-8,3,0,-5,-5,2,-1,7
-2,-15,-7,-3,-1,-2,3,-2,7
-11,-8,-2,2,0,-1,1,-1,7
5,8,9,9,1,-4,26,8,7
10,22,1,-10,0,7,-25,-10,7
-12,-26,-21,-13,-6,-3,-8,0,7
-14,-12,1,-3,-5,-3,1,0,7
-7,0,-2,-7,-2,-5,-6,-3,7
3,3,2,16,7,-1,27,11,7
6,16,3,1,-1,0,-9,-2,7
5,-2,3,-4,-3,-2,-15,-7,7
-5,-11,-7,0,-1,-2,9,0,7
2,-4,3,11,0,2,10,2,7
3,18,-2,-13,-3,1,10,-4,7
-3,0,-4,-4,-3,3,-12,0,7
9,8,2,-5,-2,3,-7,-3,7
-7,-13,-7,-6,-5,-4,9,1,7
-8,-3,3,8,4,-7,-27,-2,7
9,8,1,4,2,5,39,6,7
3,-1,1,-3,1,3,-11,1,7
0,0,-4,-7,-4,-4,-18,-7,7
-4,-4,3,6,0,0,12,4,7
5,2,2,-1,1,-4,6,-1,7
-1,3,-1,-4,-2,-4,-26,-7,7
-6,-1,-1,0,0,-2,4,-1,7
-6,-19,-8,14,0,-2,-8,-7,7
2,-16,-3,-32,-3,-3,30,5,7
10,24,3,2,2,7,-23,-5,7
-9,0,-8,-24,-7,-2,35,4,7
-3,3,8,11,-4,-7,-66,-18,7
-1,25,1,6,-3,-3,8,5,7
3,-19,-3,5,10,-2,8,1,7
-12,-1,-3,-3,-6,-6,0,0,7
-2,-10,7,1,-3,7,16,7,7
9,-6,-3,3,7,0,-4,0,7
-7,5,0,-9,-4,-4,5,-3,7
11,5,1,11,5,5,-11,-2,7
2,2,-1,-7,1,-8,13,7,7
-7,-7,-1,9,-2,10,4,-5,7
2,1,-3,-4,-3,5,-20,-9,7
-2,-5,-1,-4,-2,-4,7,0,7
7,27,3,-2,4,7,14,0,7
1,-8,-1,10,-1,-7,-36,-1,7
-13,-6,5,12,-5,-6,5,3,7
-1,-6,-8,-20,0,1,1,1,7
7,7,1,-5,-3,3,14,4,7
-11,-14,6,9,-7,-1,0,0,7
-6,-10,-10,-6,3,-3,2,1,7
16,13,9,8,5,-1,-16,0,7
-5,5,-3,-12,-4,0,5,-2,7
2,1,-6,-1,-7,2,-6,-4,7
-2,-6,4,10,6,2,2,1,7
1,0,-3,-6,-2,-3,11,3,7
-1,-16,-3,-1,3,-2,-8,-4,7
5,1,2,14,1,-6,-41,-2,7
-7,-10,-3,-14,-5,14,62,7,7
0,13,3,7,0,-2,-37,-2,7
-5,-12,-1,3,-3,1,12,0,7
3,23,5,-4,0,-8,0,3,7
8,6,2,3,2,-2,0,-1,7
-1,-12,-4,-2,3,9,20,3,7
-8,-12,-2,11,0,-1,-8,-3,7
0,2,-7,-15,0,1,5,-2,7
6,11,4,-9,-2,-5,13,9,7
-2,-4,-1,0,-5,-2,-8,-7,7
-9,-11,2,4,5,-3,-29,-5,7
6,-1,1,11,11,5,13,3,7
0,-1,-6,-11,-9,-5,-8,-6,7
-3,7,1,-2,-9,-2,1,-1,7
0,-32,-8,13,7,-4,-1,1,7
-6,6,-1,-12,3,1,2,-4,7
4,12,0,-9,-3,4,11,6,7
-6,-20,-5,3,-5,-8,-30,-9,7
0,0,3,-8,-5,-3,12,4,7
-5,-8,-1,10,0,-2,2,-3,7
4,4,2,-2,1,-6,-15,-2,7
-5,6,-3,-1,1,-2,-2,-2,7
-1,13,5,-4,-2,0,-5,-1,7
-3,-8,-3,2,-3,-5,-1,2,7
-6,-2,-1,1,-4,-1,20,1,7
5,-1,-1,8,4,2,-25,-9,7
4,13,1,-5,-1,-3,13,1,7
-1,-13,0,-2,-5,-2,-10,-3,7
-1,-1,-1,2,-2,-3,1,2,7
-10,-3,1,12,4,-2,9,1,7
15,0,-10,-36,-2,0,-2,0,7
-8,-2,0,8,1,4,14,2,7
9,26,8,-2,-2,-1,-34,-4,7
-3,-29,-9,3,-1,-2,12,1,7
-4,10,5,3,-1,0,-1,-1,7
2,1,-3,2,1,0,0,0,7
-16,-19,-4,8,1,1,-3,-5,7
6,10,6,-12,2,2,1,3,7
1,-5,1,6,-2,0,27,5,7
4,14,-5,-17,-3,1,-29,-2,7
-6,-7,1,7,-1,-4,-4,-2,7
4,5,-2,-8,-8,-7,1,5,7
0,-3,0,13,12,11,-1,-2,7
-1,-3,3,15,1,1,8,0,7
0,-9,-8,-6,3,-2,-11,-3,7
11,-1,6,0,1,0,8,2,7
-12,-7,-2,-7,-7,-2,-3,-1,7
3,13,3,9,-1,-2,11,0,7
6,-4,-2,-7,2,3,-1,1,7
-4,-4,-1,0,2,-1,17,1,7
2,16,3,6,2,-4,-9,-1,7
8,1,-3,-13,-6,-1,-15,-4,7
-9,-5,-2,0,-5,-2,19,1,7
-2,-3,-3,-9,-1,-5,-25,-7,7
-8,-8,1,-8,-1,2,11,0,7
0,-2,-2,6,0,0,-1,1,7
4,-4,-4,-2,-10,-4,-4,-2,7
4,7,2,3,7,1,23,3,7
-1,3,0,3,0,-2,-32,-6,7
-10,-23,-10,-8,0,-2,10,-1,7
4,13,3,12,3,4,0,2,7
-4,-5,5,8,1,1,-1,0,7
6,11,-15,-13,-3,-1,1,-3,7
12,29,13,-2,-8,3,13,4,7
-19,-44,-10,-8,7,-3,-12,-4,7
-2,-1,1,8,-6,1,-2,1,7
-3,-2,-10,5,3,-2,5,3,7
3,-4,-1,-7,0,-3,0,0,7
-1,9,3,13,3,3,1,-3,7
3,4,3,-2,-2,-1,22,3,7
4,-2,1,-13,-4,-8,-41,-13,7
11,0,-4,-3,3,-2,-14,-2,7
-10,6,1,5,0,2,38,6,7
-19,-13,-9,-4,-2,-5,-53,-17,7
2,27,7,-1,-5,1,19,4,7
2,-22,-7,-11,-4,-4,-9,-5,7
6,5,1,3,1,-6,-1,2,7
3,-1,-3,-7,-5,5,13,3,7
-2,-5,1,10,5,0,12,3,7
-7,-3,0,2,1,0,-8,-1,7
10,5,7,16,0,-3,-9,-1,7
1,9,-1,-30,-4,2,8,2,7
-9,-6,-4,4,-4,-4,-1,0,7
-11,-9,-2,-3,-1,3,1,1,7
2,7,0,2,2,3,-4,1,7
3,1,4,-5,-1,-3,-6,-2,7
15,11,5,4,-2,1,21,4,7
-9,9,4,-9,2,0,1,1,7
2,-11,-7,-8,-5,-2,-3,-1,7
-10,4,4,17,3,-4,-21,-5,7
4,-8,-2,-10,0,1,0,0,7
10,-5,-1,9,0,1,9,3,7
-10,-2,0,-6,0,0,-5,-4,7
5,2,-3,-2,0,-2,14,6,7
-12,-11,2,7,-6,0,-11,-5,7
4,3,0,3,3,-6,0,-2,7
2,8,3,-2,0,1,9,1,7
-5,-20,-6,2,2,2,7,0,7
0,3,1,0,2,-1,-16,-3,7
-8,-3,-7,6,-2,0,6,-1,7
9,18,13,-6,-5,-7,-8,1,7
6,2,-6,-6,0,-1,-8,-1,7
-9,-8,-1,-1,-1,1,15,5,7
-7,-6,0,-6,-2,2,-6,-4,7
5,-6,-4,15,3,1,-5,0,7
-3,0,1,-3,-6,-1,1,-2,7
1,-3,-2,-11,-3,0,23,2,7
4,4,3,2,-4,1,-7,2,7
-12,-7,-6,-10,10,-2,-26,-7,7
2,2,0,7,-2,-1,5,2,7
3,-9,-2,1,-2,1,-3,1,7
-3,-6,3,-2,-2,0,13,2,7
8,18,-1,1,-3,0,-2,0,7
9,-6,-1,-2,3,1,-5,0,7
-4,-7,-2,0,0,-2,9,1,7
-7,0,-1,-2,0,-4,-4,-1,7
-2,-3,-2,-6,-4,0,3,0,7
4,4,-1,6,4,1,-3,-1,7
-1,-2,-1,1,-1,1,-2,1,7
2,-11,-1,1,1,0,-1,-2,7
1,5,-5,-11,-2,-3,0,-1,7
4,14,4,1,0,4,9,3,7
-7,-12,-11,-5,1,-3,-8,-4,7
-9,5,15,20,-1,-2,-5,-3,7
23,-2,-8,2,12,2,4,2,7
-19,-6,-7,-11,-16,-2,-1,-4,7
2,12,2,1,8,-2,-8,-1,7
2,-5,-7,-16,-4,-1,4,-3,7
-5,-8,3,3,-2,-1,-1,2,7
6,0,5,7,2,0,-2,-2,7
8,15,-4,10,1,1,7,1,7
-12,-5,-3,-8,-2,-3,-4,-1,7
4,15,8,-4,-5,3,-1,1,7
-3,-6,-4,0,3,-1,11,3,7
-8,-10,0,4,-5,0,-17,-11,7
9,5,1,6,5,7,36,7,7
-8,-10,-12,-14,-7,-9,-54,-11,7
-9,-6,4,3,1,-6,1,2,7
6,22,7,8,1,3,2,1,7
9,-7,4,-13,-17,-2,18,1,7
-20,-30,-12,1,6,1,4,-5,7
3,-1,-1,-8,3,-1,-4,2,7
2,1,4,-5,-2,5,9,5,7
-5,7,-3,-1,4,-1,-20,-4,7
-1,-4,4,11,-3,2,9,4,7
2,7,3,2,0,1,-7,-5,7
3,-9,-7,-4,0,-3,15,3,7
-3,-1,4,-12,-3,-6,-30,-3,7
5,4,4,2,0,-4,-6,-1,7
-5,6,-2,1,4,3,11,2,7
5,2,5,-4,-6,-6,-7,1,7
-2,-5,-7,16,4,3,14,-3,7
4,-1,-4,-15,-4,-1,23,1,7
5,10,6,7,-5,-2,-55,-8,7
-8,-17,-1,-4,6,-1,11,-3,7
-10,-6,-15,-3,-2,-4,-5,-2,7
2,0,2,-3,-5,2,7,3,7
-1,-5,-3,3,-1,-3,27,3,7
-2,-4,2,-1,-3,2,-14,1,7
3,5,-1,-6,3,6,-2,-2,7
5,4,2,5,0,-2,8,2,7
-5,-9,-3,-1,-4,-1,4,-3,7
2,-3,-1,-11,-5,-2,-14,-2,7
9,15,1,1,3,-5,6,3,7
-23,4,-1,-6,-5,0,-9,0,7
8,2,0,1,-1,1,15,2,7
-3,-13,-5,3,-1,-2,-16,-4,7
4,-12,1,19,0,1,15,3,7
-6,5,-7,-25,-3,-2,-31,-8,7
-2,12,1,-2,2,2,17,2,7
-6,-10,8,-8,-5,-5,-1,-1,7
3,4,-11,-2,-1,-3,-9,1,7
6,-12,2,12,2,-1,7,0,7
-7,-13,-6,-3,-2,-5,-15,-4,7
2,8,-2,-7,-5,3,20,2,7
1,2,6,1,10,-1,-3,-4,7
2,1,1,12,0,-1,13,2,7
9,0,-4,-3,1,4,1,0,7
-33,2,-2,0,1,-7,-23,-5,7
1,1,3,-2,-4,-1,1,0,7
7,1,-1,-2,2,7,19,2,7
-4,0,-3,-1,3,2,-5,1,7
1,-3,8,9,-1,2,-6,-5,7
0,1,-5,-8,-1,0,4,4,7
0,0,0,21,2,-3,-14,-5,7
-6,6,-2,-23,-5,-1,6,4,7
9,5,-5,-6,2,0,9,3,7
-2,-3,0,-8,-2,-3,-4,-4,7
0,-6,-5,-7,-3,-1,-4,-1,7
3,-4,2,9,2,3,-2,-1,7
-3,-5,-5,6,-1,-2,-3,-1,7
1,-7,4,6,7,-4,-6,-2,7
-10,18,8,0,-3,-2,8,1,7
-1,-12,-14,-13,-5,-3,-5,-1,7
8,3,-1,-2,-1,0,4,1,7
-2,12,0,3,-5,0,-2,1,7
-2,-12,3,-2,0,-2,-2,0,7
5,-9,2,7,4,-2,-4,-2,7
4,-7,-2,11,0,2,9,3,7
4,12,-4,-13,-3,0,-5,-1,7
-11,-2,-1,-7,-2,-3,-2,-1,7
5,8,8,5,0,-1,5,0,7
1,-5,-6,-3,-1,-1,-3,-2,7
-4,-21,-2,-3,-3,2,-3,-1,7
10,25,5,4,8,-2,-1,1,7
-11,-4,1,18,0,-1,0,1,7
4,11,6,-8,3,0,5,4,7
-1,-9,-7,-10,-4,5,22,-1,7
-6,-13,-12,-8,-7,-1,-30,-7,7
3,8,0,-8,-1,-4,-5,-3,7
4,7,3,3,1,-3,-3,-1,7
-6,1,8,9,-1,-4,-12,1,7
5,-5,-4,-5,-1,8,28,4,7
0,5,2,2,4,1,-2,-1,7
3,-11,0,20,2,-5,9,-1,7
2,1,-10,-28,-11,-4,-23,-5,7
3,-3,1,12,12,3,7,4,7
-14,0,4,-9,-6,-4,-16,-5,7
6,6,-3,15,-1,1,6,5,7
-12,1,9,-13,1,2,7,-3,7
6,-9,-9,-14,-5,-6,4,0,7
-7,-15,-8,1,1,8,-5,-4,7
0,11,6,0,-2,-3,-3,-5,7
-5,-5,-6,14,3,0,-16,-3,7
1,1,1,-4,-4,-2,7,2,7
10,-11,-2,-1,-1,-4,30,7,7
-13,-4,-2,-8,0,1,-36,-4,7
8,10,1,12,5,1,7,4,7
0,3,6,-2,-2,0,5,0,7
1,22,3,2,-3,-4,-2,-2,7
-1,3,-5,-12,-7,-1,0,1,7
-2,-17,2,1,-3,-3,-1,-1,7
-4,-9,-5,-3,2,-2,-6,-2,7
-3,0,2,6,6,2,4,1,7
3,3,4,8,3,1,0,-2,7
-2,1,-4,-12,1,-5,-5,1,7
-2,1,1,2,-4,-7,-5,-1,7
2,2,-1,1,-8,3,0,-3,7
-2,-4,-6,1,8,-2,-26,-7,7
1,-3,-2,2,-2,3,4,0,7
4,10,5,1,3,-2,-16,-4,7
-1,-21,-6,-28,-5,-5,9,5,7
-7,0,-2,-1,-1,3,42,5,7
-5,-6,4,9,-3,-10,-51,-9,7
-3,12,-9,5,-3,10,17,2,7
8,0,0,4,8,-4,-8,-2,7
8,6,2,-5,-2,0,11,2,7
-14,-8,-3,5,1,-3,0,-3,7
2,-2,3,-8,-5,-3,1,-3,7
-5,-2,0,0,-6,-2,-10,-4,7
3,-2,-2,-9,-2,4,7,4,7
3,-2,1,7,4,-1,1,0,7
-1,9,0,11,0,1,-5,-2,7
-5,-24,-2,8,1,-3,5,1,7
-3,0,-6,-48,-8,-5,-4,0,7
9,17,1,3,3,1,1,0,7
-5,-19,0,-6,-6,-5,-14,-5,7
-4,2,-2,8,-2,-1,-4,0,7
0,-4,1,18,1,-3,6,-2,7
-1,-5,-4,-9,4,5,24,6,7
6,2,-1,7,1,-3,-22,-5,7
-5,1,-3,-3,-1,0,-4,1,7
-6,-11,-3,-7,-10,-5,-8,-3,7
1,8,-2,2,8,5,10,1,7
-5,-10,1,5,-3,-2,3,-1,7
-1,-3,2,-2,4,2,-2,2,7
0,2,-2,5,1,0,-2,0,7
4,14,4,1,-5,0,12,1,7
-5,-8,-7,-7,0,-2,2,-3,7
1,3,1,5,-2,-2,-1,-2,7
2,-3,-4,-8,1,2,-23,-3,7
-1,-1,5,9,-3,-4,-12,-2,7
-6,-6,3,-5,2,5,27,7,7
2,7,-5,-10,-5,2,17,1,7
0,-4,3,10,-1,-1,-1,1,7
-6,-15,-6,-9,-9,-2,-3,-2,7
9,5,-1,6,10,0,5,2,7
-3,6,5,9,5,1,-3,0,7
3,4,1,3,1,1,10,1,7
-1,-5,0,-1,-4,1,0,-2,7
-4,-5,-1,-4,-4,-3,-6,-2,7
-5,-6,-1,-3,1,0,1,-2,7
6,7,-1,-1,-1,0,2,1,7
-7,-4,3,2,-3,-3,0,-3,7
-1,5,-2,0,1,1,-7,-1,7
5,-5,-2,3,-8,-2,-4,0,7
0,2,0,-9,14,5,1,2,7
8,11,6,-7,-4,-3,5,3,7
-5,-10,-4,-3,-2,4,-5,-1,7
2,3,3,-4,-11,-2,-1,-5,7
4,-4,0,12,7,-4,-1,2,7
-20,-8,0,0,5,0,-19,-4,7
8,14,-1,-15,-11,-4,1,2,7
-9,-16,3,3,2,4,5,2,7
-1,4,-1,5,-6,-1,11,-1,7
2,-18,-4,-2,-1,-7,-21,-4,7
-14,-2,1,2,3,2,4,1,7
2,13,-2,2,2,-5,-20,-3,7
2,4,2,0,2,3,11,0,7
6,1,-1,-2,-3,1,8,0,7
-2,-13,-1,6,2,3,-1,1,7
7,9,3,-4,0,-4,6,1,7
-10,0,0,15,-4,-3,1,1,7
-5,-4,-4,-22,-2,-1,-13,-7,7
4,-1,-3,-5,4,-4,2,3,7
-5,0,0,2,4,2,-7,-1,7
-3,-5,-3,22,-2,-1,2,0,7
10,9,-1,-40,-3,0,8,5,7
-3,-14,-1,3,-5,-2,2,0,7
11,27,-1,-5,2,-1,1,0,7
-7,-9,-1,-2,-6,-2,-10,-1,7
-7,-4,-3,18,-5,3,23,3,7
-6,-1,-1,-5,7,-3,-17,-8,7
-8,-9,0,-1,-1,-1,2,0,7
11,-2,-1,-6,-1,0,0,-2,7
3,3,-2,4,0,1,9,3,7
4,8,6,-7,-6,-2,-2,1,7
0,-7,-2,7,3,-1,-1,-4,7
-4,-1,2,-11,-2,1,-2,-1,7
3,3,-3,8,2,-3,-3,-1,7
3,7,2,18,0,0,4,-2,7
0,-6,0,-17,-1,2,1,1,7
-6,-3,-5,-18,-6,-2,-6,-3,7
3,-1,-3,8,2,0,4,1,7
2,3,3,2,-2,1,4,-1,7
0,2,2,18,-3,1,6,-1,7
-3,3,8,-3,9,-4,-14,-3,7
-2,-12,-15,-11,-3,0,-3,1,7
-2,-8,-1,-10,-4,-1,7,1,7
15,21,4,-10,0,1,4,3,7
3,16,3,1,-3,-8,-26,-5,7
-12,-13,6,21,-1,-3,1,-2,7
-11,6,-3,-10,-2,-1,-3,-1,7
-12,-20,-4,3,1,0,14,4,7
3,-1,-2,3,2,-1,4,0,7
6,9,6,5,1,-1,-4,1,7
7,-7,-7,-21,-5,-6,-29,-12,7
-5,-1,0,3,-1,-3,-13,-4,7
-1,-1,-5,-7,-2,1,13,2,7
1,5,0,4,1,0,15,2,7
3,-14,9,17,2,-2,2,5,7
-1,9,-10,-12,0,-1,-4,-3,7
-4,-9,-5,0,-5,0,-2,-1,7
0,6,1,-3,2,3,-1,0,7
-2,-5,3,7,-5,4,10,2,7
-4,-12,-10,-17,-5,-8,-2,-1,7
-5,-1,-1,7,-1,7,30,5,7
-5,-1,-1,4,1,-3,-40,-12,7
-1,13,-2,-5,-6,0,1,1,7
2,-6,-1,-1,1,2,19,3,7
-2,4,3,-6,-7,-1,-10,2,7
-1,-10,-1,7,1,0,-7,3,7
-2,-1,-4,4,6,3,18,-1,7
-3,3,0,-10,0,2,-5,-1,7
11,-20,-7,4,5,-3,0,-3,7
-1,22,6,-5,-3,0,5,1,7
0,-12,-2,5,-1,-4,-10,2,7
-8,1,0,3,-2,-1,2,-3,7
-6,-3,-2,-3,0,2,-8,-3,7
0,-5,-2,11,0,-1,7,1,7
11,9,3,-4,4,2,2,2,7
0,0,0,-6,-3,0,-4,0,7
-3,-8,-1,-5,-6,1,-5,-1,7
5,5,1,4,6,-4,16,-1,7
-6,5,6,10,1,1,-6,-1,7
3,-3,-6,3,2,0,8,1,7
-6,-5,4,-8,-5,0,-18,-2,7
9,9,0,-9,-4,-1,6,1,7
-3,-5,-6,-3,-4,-3,-8,0,7
-3,5,4,16,-2,1,-13,-1,7
3,2,0,6,4,-1,15,3,7
-2,10,-6,-24,-8,-1,4,0,7
4,-6,-1,-2,-2,0,-2,-3,7
0,3,5,0,4,-4,-5,1,7
1,1,-2,0,2,1,0,-1,7
-10,-19,-6,0,0,2,6,-1,7
-8,5,-6,4,2,0,2,-2,7
11,-9,2,11,-1,2,-3,1,7
-5,6,-7,-13,-2,-3,-10,-4,7
5,6,1,-4,0,-3,-9,-3,7
-3,-3,-2,-5,-1,-1,7,0,7
2,-12,-1,5,4,1,0,-2,7
1,28,3,-1,-4,-7,-7,-4,7
-6,-22,0,8,1,-3,-8,1,7
-1,1,-5,-1,2,-1,5,1,7
0,2,3,-10,-3,0,-9,-1,7
2,-9,-1,2,-1,-1,17,2,7
-9,-5,-5,-13,-3,0,-11,-1,7
-1,-2,3,7,4,-2,-1,0,7
7,-1,1,5,3,1,3,3,7
2,9,-1,10,2,3,7,1,7
2,-1,3,-9,-3,1,1,1,7
-5,-9,-3,-5,-6,-4,-8,-3,7
-3,8,-1,-4,-2,-4,1,-1,7
-4,-1,1,8,1,5,8,2,7
3,2,2,-5,1,1,-8,-1,7
-6,-13,-11,-10,-7,-3,-1,-2,7
-3,-2,0,-1,-1,-2,-7,-1,7
-1,-12,2,2,3,1,3,4,7
9,25,5,13,3,4,12,3,7
7,2,0,-4,-2,-1,-5,-2,7
-22,-21,-2,14,-2,-2,4,-5,7
1,2,-13,-16,0,1,-14,-3,7
4,3,-1,2,-3,-3,4,-1,7
-2,15,3,-10,-2,0,9,3,7
-1,-1,0,-10,-1,-4,-19,-4,7
3,-10,-3,13,1,0,-2,-1,7
-5,-1,-4,-14,-5,-1,-4,-5,7
3,0,0,13,3,1,16,4,7
5,11,6,8,4,6,3,-1,7
-2,-9,0,-13,-3,-7,-7,-3,7
2,4,1,6,-1,-3,7,4,7
-12,-14,1,10,8,1,-6,1,7
1,-1,-7,-20,-9,-4,-3,-2,7
-3,6,-1,-5,-5,-2,-5,-2,7
1,-7,0,4,4,4,9,1,7
1,6,4,-2,-2,0,3,1,7
-1,3,-3,-2,1,-3,-20,-5,7
1,-2,1,0,-1,-1,3,2,7
-2,-7,0,3,0,-3,-5,-4,7
0,6,0,-5,-2,3,-1,1,7
2,-2,-3,0,-3,-2,6,1,7
-2,-2,2,1,4,-2,-1,-2,7
-3,-1,0,4,-4,1,1,5,7
2,1,-1,-4,1,-1,-1,1,7
-1,-2,-6,-4,-2,0,4,1,7
-3,-5,2,5,1,0,-3,-2,7
0,8,3,4,0,-2,-1,-3,7
1,-11,-4,-11,-5,-2,-1,0,7
6,28,4,-8,-3,-2,2,1,7
-11,-14,0,-1,-3,-2,-2,0,7
-1,-8,-2,9,-3,-3,-2,-1,7
0,0,0,-8,0,-1,-6,-1,7
2,-8,-6,1,1,0,-2,1,7
4,12,3,5,5,3,13,0,7
1,-6,-1,-7,-4,-4,-10,-3,7
-12,-5,-1,4,0,1,-5,-4,7
-3,-9,-1,-5,-3,5,32,5,7
1,11,1,0,-3,-6,-36,-4,7
3,-9,-3,8,8,-2,-9,-2,7
9,17,1,-3,-4,-1,19,3,7
-11,-9,-5,1,1,-2,-30,-9,7
0,-16,-3,-4,-7,0,25,6,7
-6,7,2,-3,5,1,-1,-1,7
3,-7,0,-4,-3,-4,-8,1,7
0,-3,3,10,-1,0,10,1,7
3,11,-4,-4,6,1,2,0,7
2,-7,-5,-9,-3,0,-3,-2,7
1,9,-2,0,1,-2,-2,-1,7
2,-6,3,6,3,-2,-2,-3,7
-5,-13,-1,-5,-1,2,3,1,7
-6,-4,-2,13,-2,-2,-8,-2,7
3,4,0,-1,4,1,5,0,7
-4,13,-2,-8,-8,-1,-4,-2,7
4,1,-3,0,-1,-2,-2,-3,7
0,9,2,-6,-4,-5,-5,-1,7
0,-10,-2,5,1,0,-3,-2,7
1,-2,2,7,2,2,7,1,7
1,6,2,5,-15,-1,6,3,7
9,3,-4,-16,13,7,18,4,7
-13,-9,-1,11,-2,1,-30,-6,7
1,4,-4,-13,-1,-10,-12,-2,7
-3,-3,3,9,2,7,3,1,7
-2,-3,0,12,0,-4,20,1,7
7,9,-3,-16,-6,-2,1,1,7
-2,-14,1,9,6,3,19,3,7
-4,5,-3,-6,-4,-8,-43,-9,7
-3,1,-1,-7,-3,-1,0,2,7
-5,-4,1,7,1,1,-8,-3,7
4,8,0,0,0,-2,2,2,7
1,-4,-2,-13,-3,-1,1,1,7
-6,-17,-6,3,-1,-3,-8,-6,7
3,15,3,2,-4,0,1,-3,7
-5,-2,-7,8,2,3,-3,-1,7
3,-9,3,11,3,1,7,0,7
-6,5,-4,-12,-5,0,3,-1,7
3,-5,1,9,1,-3,1,-1,7
0,4,4,-18,-5,0,-7,-2,7
-1,0,-9,5,2,0,7,1,7
1,0,1,-5,-2,2,-8,-1,7
3,4,0,-8,1,-4,3,3,7
0,-2,3,5,-2,0,-3,-1,7
-3,-3,-3,-3,-2,-1,8,1,7
1,-3,1,11,1,1,1,0,7
0,-2,4,3,2,2,10,5,7
-3,2,-8,-27,-9,-6,-26,-11,7
2,-1,2,-3,1,-4,0,-2,7
-1,4,0,2,-3,-3,1,-2,7
3,1,1,1,5,1,3,0,7
-1,-2,3,10,2,3,2,3,7
-4,0,1,-8,2,-1,1,-1,7
0,-4,-1,-1,-3,0,0,-1,7
-1,-2,-1,2,-1,-2,-5,-4,7
7,3,0,5,3,0,4,3,7
-1,-1,-2,-8,-17,-4,-8,-2,7
1,5,4,8,14,8,12,5,7
-7,-8,-8,-3,-7,-8,-13,-3,7
-1,3,8,2,3,4,32,10,7
5,-7,2,14,7,7,10,-5,7
1,19,-2,-7,-8,-1,-56,-11,7
-4,-8,-6,-18,-5,-3,13,-3,7
-12,-4,-3,4,-1,0,-4,-1,7
2,2,4,0,-1,-6,11,7,7
4,-8,1,5,-3,-3,17,4,7
7,12,-1,5,5,3,-9,2,7
3,-13,0,3,0,0,-4,-4,7
-2,5,1,-3,1,0,3,-2,7
-9,-16,-6,10,3,0,11,4,7
-1,6,1,-15,-7,0,-12,-3,7
7,13,-3,-7,-2,-4,5,1,7
-3,-1,1,7,6,0,-9,-2,7
-2,-1,-2,-6,-10,-5,3,-1,7
-2,-12,-6,-1,-1,1,11,1,7
5,-3,-2,0,-1,-1,-4,1,7
-8,-2,-3,-2,2,-1,-12,-3,7
5,7,6,5,1,1,6,2,7
2,8,3,2,-8,-1,31,5,7
-8,-11,4,2,-2,-5,-50,-10,7
-10,-10,-16,-4,-1,-1,-3,0,7
0,-1,0,-15,0,1,3,-1,7
4,-1,3,-8,-1,0,-6,-1,7
4,10,1,10,2,0,22,6,7
3,-12,3,-10,-7,-6,-17,-5,7
-6,-4,-5,1,0,-2,-13,-3,7
1,2,0,3,3,-1,-1,-1,7
-1,-4,1,3,-2,1,26,4,7
1,5,0,0,1,-2,-37,-6,7
6,-3,-1,-11,0,-3,8,3,7
-8,4,3,6,-2,-3,-5,0,7
-2,-8,-5,0,2,-1,12,3,7
1,8,1,-4,-4,-1,-4,-6,7
-1,-5,-3,-8,-6,-4,-11,-1,7
-3,-14,-3,6,5,-2,-1,1,7
3,21,1,3,3,1,-8,-7,7
-1,-6,2,-1,-1,0,12,6,7
1,3,5,-9,-6,-4,-4,-3,7
-2,4,4,7,2,-1,-1,-2,7
-4,-11,-11,-16,-4,3,1,-3,7
2,-12,-1,0,1,1,10,3,7
3,15,5,11,-1,3,5,0,7
-4,-4,-2,-15,-6,-5,-10,-5,7
-3,-3,2,2,1,-1,19,4,7
-3,-1,-1,5,-5,4,-25,-7,7
-8,-5,-6,1,8,0,1,0,7
5,3,1,5,-2,-1,13,2,7
4,0,-1,-1,4,1,-25,-1,7
-2,-6,-1,-9,-2,-1,13,-1,7
0,2,0,3,-1,3,5,0,7
-2,-4,1,9,2,1,-9,0,7
0,-1,-3,-4,-3,1,15,2,7
4,14,0,5,7,1,11,6,7
8,-10,3,0,0,4,2,3,7
-12,-10,-6,2,1,-3,-14,-7,7
-3,-14,-2,-16,-6,-4,-8,-2,7
3,21,-5,-3,0,-1,7,1,7
0,16,5,-11,2,-4,-9,-4,7
3,9,-2,-12,-5,1,9,3,7
-13,-19,0,13,0,-4,-5,-1,7
-5,-6,-1,2,0,1,-3,-4,7
1,-8,-4,0,-1,-2,7,5,7
5,2,0,1,0,4,3,-2,7
4,4,1,0,1,-4,-27,-7,7
2,7,1,0,-2,-2,19,5,7
-3,-4,-1,5,-1,-3,6,1,7
2,3,4,7,6,4,-17,0,7
-5,-4,-7,-9,-6,-6,-9,-5,7
0,-5,0,-1,-2,-2,-1,4,7
-3,-3,-3,3,-5,0,7,-7,7
-3,-6,-5,4,3,5,14,2,7
-4,1,2,-9,-4,-3,-3,-5,7
5,2,5,-2,3,0,-3,0,7
-2,-1,0,16,-8,-4,-7,-4,7
-2,-5,3,-2,5,-2,1,2,7
7,5,-6,-8,2,3,11,5,7
5,6,2,-13,-6,-1,16,1,7
-7,-12,-3,5,-2,-6,-15,1,7
-9,-3,-1,10,1,3,1,-3,7
3,12,2,0,-3,-2,1,1,7
-7,-15,-3,1,0,-2,-11,-3,7
8,5,2,-6,3,1,5,1,7
6,-4,-4,3,-5,-5,-7,1,7
-1,4,-2,1,5,3,28,6,7
1,-1,3,1,0,-2,-28,-4,7
-4,2,-3,-2,-1,3,3,-1,7
0,-8,2,-6,-1,-2,-5,-3,7
-5,-2,-2,4,-5,-1,-1,-3,7
2,0,-1,5,-4,-3,5,0,7
-2,-7,-1,-2,1,-1,1,1,7
-1,8,-1,13,-3,-1,-2,0,7
4,2,-5,-23,-2,1,0,-1,7
-8,-5,0,6,0,-1,3,-2,7
-2,-9,-6,-21,-2,-1,-6,-2,7
1,6,-4,1,-2,-1,4,0,7
0,-6,6,17,-6,-1,-9,-3,7
1,10,-2,-4,7,1,2,0,7
0,-1,1,1,-2,0,0,-1,7
-3,0,7,14,2,-1,-3,0,7
-4,-21,-12,-4,-2,1,-6,-4,7
-3,-19,-11,-12,-2,2,3,0,7
3,11,7,7,3,0,6,1,7
3,21,0,-18,-6,-5,-8,-1,7
-1,2,1,12,-4,-2,-11,-2,7
-11,-5,1,5,7,2,8,-1,7
-5,-14,-8,4,3,0,-7,-1,7
9,-5,2,-8,0,1,19,2,7
8,12,1,-12,1,-2,6,7,7
-14,-10,-1,-1,-4,8,-15,-8,7
-7,0,1,1,-1,-6,-25,-5,7
4,0,-3,-1,2,-1,10,5,7
0,5,6,10,0,-4,-22,-7,7
11,9,-1,-11,-2,-1,15,7,7
-1,0,1,4,1,2,3,2,7
-2,-7,-4,-4,-3,1,-5,-4,7
0,0,-2,-3,1,-1,12,3,7
4,17,6,5,-4,-3,2,1,7
-5,2,1,0,0,0,-3,-2,7
-3,-8,2,0,-1,-5,-1,-3,7
-6,-11,-9,5,0,4,3,-4,7
1,0,-2,-24,0,0,-6,4,7
4,-4,-4,-6,-11,-5,-2,-4,7
4,3,-3,-2,-8,0,-12,-4,7
-1,6,2,11,16,2,1,-2,7
-7,-2,1,6,-8,-6,2,-1,7
-2,-8,0,-7,0,-2,16,4,7
-6,-16,-1,10,2,0,-6,-1,7
0,9,-4,0,0,2,16,0,7
7,2,-3,-16,-4,-3,-15,-4,7
-6,0,-1,-9,-2,1,14,3,7
-2,3,1,4,4,1,-30,-7,7
-1,-6,-2,-2,-4,-2,0,1,7
0,-4,-3,7,-4,-6,12,2,7
8,15,3,8,0,3,-5,-4,7
-2,-3,-3,-12,-2,-2,-16,-3,7
0,-4,3,2,-3,1,4,3,7
-3,-9,2,5,2,0,17,-5,7
7,13,8,19,3,-2,-36,-2,7
-5,-7,-10,-21,-9,-5,13,3,7
-1,-2,-2,-7,8,-1,-15,-1,7
3,8,4,3,-6,-1,0,1,7
-4,-17,-5,-13,-3,1,16,1,7
3,11,-3,9,3,0,7,0,7
8,1,9,8,-3,2,-11,0,7
-17,-14,-9,-3,-3,-1,2,-3,7
-1,7,2,11,2,-1,-1,-2,7
-8,-12,0,-21,-3,-2,-3,0,7
4,6,3,7,-1,-1,9,3,7
8,6,-10,4,4,2,-13,-2,7
-3,-5,4,-4,-1,0,3,1,7
-1,2,-2,-1,-2,-2,7,0,7
3,-3,3,-5,-3,-2,-2,0,7
-5,-2,3,8,2,-2,-16,-2,7
3,9,-5,3,0,5,25,-1,7
2,0,1,-8,-8,8,20,6,7
-7,-4,4,7,5,-3,-12,-4,7
5,-2,-7,10,-1,-4,-11,-3,7
0,2,-8,-32,-2,0,12,3,7
2,-5,0,16,3,0,-20,-1,7
-5,-7,-1,-8,-5,-2,2,-1,7
3,24,1,2,1,0,4,1,7
-1,-39,-4,7,2,0,-6,-2,7
-10,2,-2,-9,1,0,13,1,7
2,5,-1,12,-4,-1,-6,-2,7
1,-5,-1,-26,-2,-2,-1,-1,7
-1,12,-1,4,-10,-3,-1,2,7
0,-6,0,4,13,1,9,1,7
0,-4,-2,3,-3,0,-11,-2,7
1,-4,1,-3,1,1,9,4,7
0,1,5,16,-2,1,-5,-1,7
6,13,2,-9,-2,-2,-14,-5,7
-8,-4,-7,-26,-4,2,14,-1,7
3,2,5,7,-2,-2,16,3,7
-2,-3,-2,-3,2,0,-35,-7,7
-5,-6,3,22,2,-2,6,2,7
3,6,2,-3,1,-4,-5,1,7
-1,-5,-2,-3,-2,4,-1,-4,7
-5,-7,-3,-3,2,1,-9,-3,7
9,17,6,9,-3,1,7,0,7
-4,-6,-10,-21,-5,-5,2,-2,7
-3,-12,-3,2,1,2,21,6,7
-1,9,1,5,-2,-7,-39,-10,7
-2,-6,-9,-16,3,-2,-6,-5,7
-1,-8,2,7,0,2,-2,-2,7
18,31,4,6,-4,-3,0,3,7
-4,-9,4,-3,5,1,18,4,7
-15,-18,-3,-5,-2,-3,-6,-4,7
0,-4,1,9,-3,-2,-2,2,7
1,-5,1,18,9,4,-3,-1,7
3,12,-10,-22,-7,-3,8,-1,7
2,0,-1,5,-3,-3,-5,-1,7
-3,-2,-1,-6,3,4,25,3,7
-2,-3,2,-7,-3,0,-18,-2,7
-6,-10,-3,5,4,-2,-10,-2,7
0,1,-2,-5,0,-2,-1,3,7
5,14,7,13,3,5,-5,-3,7
-4,-16,-6,7,-2,-2,20,2,7
0,3,-3,-22,-4,-4,-20,-4,7
3,2,1,1,1,1,-9,-3,7
2,3,-2,2,-5,-5,0,-1,7
-5,-1,2,1,-4,-1,-4,-1,7
-2,-4,-1,0,-4,2,17,2,7
2,-1,0,3,9,1,8,4,7
-8,-11,-6,-5,-5,-1,-10,-3,7
3,24,2,0,1,-2,-4,-2,7
2,-9,0,3,2,1,8,3,7
-6,-8,-6,-10,-7,0,-2,-3,7
-3,0,2,-1,2,0,0,1,7
-4,-12,-6,-12,0,1,-9,-4,7
-1,9,9,16,-4,0,13,1,7
2,1,-2,1,-2,1,2,0,7
8,6,1,-2,2,-2,-10,3,7
-4,-10,-3,8,0,0,-10,-6,7
-1,8,-8,-16,-4,-6,17,1,7
2,-7,6,11,3,11,-12,-3,7
5,8,1,0,1,-1,11,3,7
-1,7,-8,-8,-3,-11,-47,-8,7
-13,-16,-1,5,-3,6,-3,0,7
-5,3,-2,-7,-3,-4,12,-4,7
-2,-2,0,2,1,0,6,3,7
9,4,2,14,6,5,16,3,7
0,-7,-5,-18,-1,-3,6,1,7
