-70,-28,-15,-13,-19,-21,53,69,2
8,5,3,0,-3,-7,7,-71,2
63,-7,-3,-2,-2,-5,-44,29,2
-14,4,4,2,4,4,-19,-62,2
87,6,0,2,7,3,-5,-51,2
9,9,3,3,7,4,36,115,2
-95,-2,3,3,7,10,-21,-37,2
-79,-19,-14,-11,-12,-16,54,127,2
-23,-2,-1,0,2,-5,-118,-80,2
96,39,32,29,39,50,-59,86,2
-54,-39,-27,-25,-33,-43,85,-25,2
-77,-19,-18,-16,-20,-22,-16,-37,2
18,8,29,9,2,16,127,74,2
-49,-14,-54,-12,-11,-9,-98,-73,2
24,28,33,13,14,25,28,-10,2
-26,3,-5,-4,-3,-2,106,3,2
-22,13,8,-2,-4,-2,4,122,2
-58,-22,2,-1,-2,2,-24,-75,2
16,17,11,14,19,17,-117,-101,2
98,13,5,4,3,1,28,127,2
-64,-26,-31,-23,-23,-32,75,-9,2
-59,-6,4,-4,-8,-17,17,69,2
-39,-2,-7,-2,-7,-16,-60,-26,2
80,21,27,18,26,35,17,-45,2
-77,-3,-9,0,6,5,-99,-12,2
70,12,2,-7,-12,-16,-23,40,2
-14,-4,5,2,7,19,103,-31,2
71,19,15,15,15,5,-128,36,2
-22,-16,-11,-6,-26,-10,118,-31,2
15,0,11,3,28,14,-18,69,2
63,16,10,0,-5,6,-26,-21,2
-107,-24,-19,-25,-32,-6,76,-50,2
-28,-7,-27,2,-3,-2,-65,-128,2
-25,7,10,4,-18,5,-21,39,2
-41,-18,22,4,30,1,-67,20,2
7,-8,-29,-6,18,1,-37,-61,2
77,37,28,14,10,31,-12,63,2
-67,-29,-38,8,0,-17,97,-75,2
-27,-15,-20,-30,-34,-17,70,86,2
25,4,6,1,-16,-11,-31,22,2
67,36,41,37,55,73,26,89,2
125,33,15,2,-5,-5,-62,20,2
57,20,23,22,19,28,49,100,2
-107,-24,-20,-28,-34,-61,2,5,2
25,6,8,10,4,1,45,73,2
-27,-11,5,-11,-20,-12,-17,39,2
30,13,11,0,-18,-23,-95,20,2
-24,26,8,10,49,79,-21,-4,2
-31,-50,-44,-57,-46,-58,-69,-128,2
6,-16,-10,28,65,17,13,41,2
-66,-8,-9,12,26,-8,7,-103,2
79,0,1,-8,-8,-23,36,94,2
-25,28,42,29,21,27,69,27,2
-18,-19,-48,-32,-21,-29,-9,-36,2
114,16,34,-9,-25,-6,-4,23,2
-83,-46,-86,-2,-11,-20,-91,-109,2
-62,45,23,5,22,32,73,57,2
7,2,18,-13,-22,-13,108,-104,2
65,27,22,25,40,43,-63,34,2
15,-11,3,-1,-21,-18,71,46,2
10,-12,-25,-16,-26,-33,20,-51,2
18,12,14,2,-4,13,-46,-74,2
-54,-17,-15,9,-2,31,101,-85,2
-84,-10,5,-10,-21,-26,39,10,2
9,-8,-8,4,5,1,-64,6,2
80,31,27,6,7,29,127,39,2
-71,-21,-26,-41,-58,-68,16,66,2
37,21,-11,49,32,37,-94,13,2
-24,-38,-27,-33,-7,-20,33,60,2
47,15,19,13,20,30,38,-98,2
15,-11,-23,-12,-3,-13,-108,-61,2
69,21,36,1,-2,16,88,82,2
-47,-26,-11,1,-17,-40,-128,-115,2
91,13,17,19,21,46,55,96,2
-75,-34,-49,-27,-30,-50,-62,-34,2
-80,-17,28,-8,-12,-43,-106,38,2
66,24,38,26,30,31,-44,-21,2
-128,-50,-34,-25,-16,-25,-51,-109,2
-18,47,-2,3,6,2,3,-38,2
34,-42,8,-20,-18,-1,76,28,2
96,55,-14,-13,-7,-11,90,92,2
0,-74,21,25,10,25,-92,-111,2
60,-4,-1,4,-7,-1,46,68,2
-53,-16,12,11,15,20,13,-95,2
81,24,9,15,-1,11,28,53,2
-69,2,-16,-17,-16,-27,-77,-5,2
-11,2,-19,1,9,27,127,127,2
-32,37,-22,-5,8,-1,-116,-101,2
14,-15,15,34,37,38,20,22,2
-64,9,-42,-58,-89,-75,25,52,2
-80,-74,18,10,3,4,18,68,2
-14,41,-21,-14,-12,-15,127,68,2
33,30,23,14,7,-5,-71,-32,2
-35,-5,13,8,17,17,89,19,2
27,43,-15,7,10,21,49,2,2
-41,-11,6,-13,-24,-31,-124,-105,2
-128,-89,-27,-14,-12,-2,32,-69,2
-35,1,13,0,-6,-7,114,59,2
114,-19,18,28,50,58,-86,45,2
16,8,-31,-19,-19,-39,39,-62,2
-12,41,-5,-6,1,5,-79,-41,2
-48,-38,-15,-11,-10,-32,-128,-98,2
-24,7,-28,-27,-29,-41,-55,-71,2
-21,10,6,1,8,16,122,-30,2
1,-8,-14,-15,-18,-21,-35,-51,2
78,40,17,24,24,30,25,28,2
-111,-85,2,-12,-1,-14,-7,-8,2
57,-28,43,22,33,44,27,-17,2
-75,50,45,-7,-5,-31,75,24,2
-1,-13,-1,-2,16,16,14,-34,2
-24,-10,22,-7,-26,-31,-24,50,2
-72,7,2,5,0,12,-53,-87,2
-92,-45,0,1,-6,6,29,-91,2
21,14,-12,0,-12,-25,-15,40,2
12,20,-6,2,-6,2,-71,4,2
89,-3,21,12,6,26,63,124,2
127,41,-5,12,16,22,20,67,2
-26,-49,-5,-5,-7,-21,-71,-17,2
31,16,-12,-1,1,10,106,-59,2
1,5,13,3,6,12,3,84,2
-36,-9,-27,-15,-19,-18,16,-70,2
11,-23,47,18,14,18,-54,3,2
122,14,40,23,32,40,89,127,2
-90,-67,-47,-32,-30,-45,64,56,2
-49,-23,-17,-25,-23,-40,-59,48,2
-7,-48,15,5,1,19,-100,22,2
-8,51,2,12,22,27,44,-56,2
27,60,0,-14,-11,-32,37,34,2
-7,-3,-10,2,10,-1,-66,-20,2
52,22,0,6,11,13,-62,-109,2
-24,5,-4,-14,-22,-36,23,40,2
80,-21,46,46,39,73,77,58,2
10,50,-34,-39,-51,-72,5,95,2
-7,29,-12,-7,-3,-2,104,-11,2
16,0,-8,8,6,13,-8,19,2
24,11,23,7,8,4,-122,-128,2
106,3,9,10,8,12,44,59,2
12,-4,3,5,12,7,-6,88,2
0,23,-10,-12,-22,-49,-33,-88,2
-57,-55,-12,-10,-24,-20,-43,-2,2
46,0,14,15,21,39,63,-43,2
-20,3,-48,-7,-10,6,127,-50,2
-26,50,-7,-12,7,-28,-107,-32,2
50,-9,-18,-7,-5,-4,88,127,2
-116,-35,0,-9,-1,-5,11,35,2
51,-20,27,4,5,4,62,127,2
-26,-52,8,15,13,28,-59,-109,2
90,-66,56,48,56,91,-61,41,2
-79,-8,-41,-37,-40,-73,-90,-7,2
-12,-29,23,3,-6,-15,-111,-41,2
41,0,-24,-8,-11,1,47,47,2
36,-32,24,23,24,35,-128,-114,2
-59,17,-26,-14,-19,-8,-17,-109,2
-17,-20,1,0,-1,-1,-35,-85,2
6,16,32,-1,-12,-20,-67,-122,2
-107,19,-75,-15,-7,-11,7,-74,2
102,-11,31,31,36,65,55,127,2
-1,-14,3,-2,-2,-11,-61,-50,2
78,6,15,5,7,23,42,67,2
-22,31,3,-7,-5,-19,-77,-86,2
104,27,23,7,-2,3,43,-52,2
94,37,-8,-8,0,3,-35,61,2
-10,-55,25,34,42,73,-25,-36,2
-81,43,-43,-50,-60,-103,-99,-27,2
55,17,-9,-1,5,7,67,51,2
-82,0,-6,-9,-14,-20,48,2,2
7,-16,24,30,37,49,-58,-56,2
-42,15,-20,-23,-24,-33,113,45,2
1,-11,66,26,28,36,-13,3,2
-32,10,-28,-18,-19,-34,-38,-20,2
-21,-16,-32,-12,-11,-8,1,103,2
-28,1,-43,2,1,-8,-70,81,2
-8,-8,-19,-11,-9,1,0,30,2
32,-53,40,35,40,65,83,41,2
9,48,-14,-23,-26,-56,125,58,2
75,67,22,11,6,41,-69,46,2
-65,-2,-39,-23,-28,-47,-59,-128,2
11,36,-14,-9,-2,-10,60,112,2
0,30,-28,0,-7,-3,12,-62,2
29,4,31,18,25,31,23,0,2
45,3,-1,0,9,12,64,47,2
33,47,-11,0,-1,-7,-106,-22,2
-55,-21,-3,-11,-12,-11,64,-33,2
-25,30,3,-10,-10,-25,7,63,2
-23,7,9,17,17,19,-67,-62,2
-10,-23,18,-5,-10,-11,120,103,2
-50,-1,-44,-13,-7,-16,-60,11,2
68,29,22,10,9,16,-57,-81,2
-18,-29,-5,9,7,15,72,49,2
46,30,20,11,11,15,101,59,2
-84,7,20,-9,-14,-24,-44,13,2
1,3,-13,6,11,9,-31,-30,2
76,-14,23,3,0,2,13,72,2
-62,-25,-2,8,13,30,41,55,2
-74,-42,-21,-20,-24,-38,-93,-65,2
13,50,-18,-9,-6,-28,-67,-27,2
1,4,-19,-2,1,13,64,29,2
-49,-3,-3,2,10,5,-69,-23,2
-3,-31,-7,2,-22,11,99,16,2
-69,-73,17,3,-1,-10,61,57,2
-81,-55,-4,0,3,14,46,-122,2
-5,3,-13,-18,-20,-27,-19,36,2
-2,0,-11,-4,4,-3,63,-7,2
17,-25,16,7,14,20,47,-32,2
-9,15,5,2,-4,-8,-90,-16,2
10,7,-23,-12,-23,-38,55,3,2
39,12,34,6,5,3,-30,-51,2
41,19,-35,-14,-7,-11,9,-33,2
18,13,4,2,9,4,-35,64,2
1,-18,21,7,8,14,7,-23,2
8,-40,29,26,35,43,-56,17,2
-58,-1,-72,-38,-47,-42,125,-75,2
28,-16,-6,0,0,-10,-21,10,2
-48,5,-8,1,7,15,-29,-38,2
-28,-24,1,-5,-12,-8,-58,-12,2
97,-17,27,10,17,15,100,118,2
-76,6,-10,1,-4,-5,-53,-112,2
6,-23,-7,-10,-18,-21,-6,-16,2
13,-27,-13,-4,2,-1,-38,20,2
9,-37,42,19,19,32,-52,-1,2
-18,-19,-5,-10,-6,-17,-55,25,2
30,-17,-14,-1,7,2,34,-128,2
75,39,10,-2,-10,-22,-63,56,2
-7,-24,2,5,2,6,-8,-74,2
57,-8,16,27,20,38,103,68,2
-12,5,-23,-24,-24,-33,4,-58,2
-37,-10,-17,-21,-20,-32,11,47,2
26,18,3,1,4,20,111,103,2
-33,-23,-11,-2,0,-2,-92,27,2
-3,2,17,13,10,7,-53,53,2
10,18,-24,-24,-25,-34,127,-71,2
-11,-9,23,8,8,11,-50,30,2
43,0,-1,-3,2,5,20,41,2
-61,-65,-7,1,2,7,-62,16,2
-26,-26,30,11,16,24,2,119,2
-54,-23,7,2,2,0,22,-41,2
83,-8,28,12,8,17,82,66,2
-66,-16,-44,-20,-18,-33,-57,-51,2
-27,25,-19,5,11,0,-3,-64,2
41,16,11,0,6,18,82,62,2
-61,-48,-9,-9,-13,-27,-61,41,2
47,16,13,0,3,-3,58,127,2
-51,-47,17,8,20,30,106,105,2
40,-8,-14,-5,0,0,-100,41,2
-32,20,-4,-5,0,-3,-55,-27,2
61,8,17,13,16,28,-35,81,2
-43,27,-16,-6,-4,-11,90,105,2
-40,4,2,-9,-14,-10,98,127,2
5,4,-6,0,1,-12,58,-68,2
42,43,-27,-11,-13,-21,-37,-32,2
89,33,21,13,15,27,-8,99,2
-34,-5,35,9,10,17,-2,-103,2
-10,6,-32,-2,-1,4,58,108,2
-71,-63,5,-5,-8,-5,43,-60,2
117,19,8,13,2,1,-87,81,2
-46,27,-11,3,-1,-11,5,-98,2
49,80,57,-11,-12,-9,-71,60,2
-39,-8,-13,15,26,28,51,70,2
-12,-38,-17,-25,-38,-20,17,-28,2
-56,-52,-25,-15,-14,-21,-30,-56,2
-41,-18,-8,9,17,7,2,-68,2
40,2,18,-3,-14,14,21,-15,2
-27,-4,-11,-15,0,-8,-7,-35,2
91,52,16,16,15,10,-107,93,2
33,16,-22,-15,-17,-27,98,-16,2
64,13,31,18,18,24,20,40,2
-26,6,-18,0,-7,-16,37,18,2
-32,-35,3,-10,-9,-5,100,117,2
12,2,-3,5,6,2,-128,-128,2
33,4,-17,-10,-11,-17,11,-45,2
-27,-28,39,24,20,25,-103,-68,2
-34,32,-63,-35,-38,-53,-15,43,2
18,10,-3,-3,-1,1,24,-8,2
-15,13,14,1,1,1,0,-5,2
-65,-12,-29,-2,4,10,50,-83,2
-29,-8,30,11,12,6,-11,-102,2
-38,-31,-16,-9,-12,-3,-104,-9,2
-7,33,-20,-10,-3,-7,17,-6,2
-49,-42,34,16,11,3,32,22,2
37,32,-18,-4,-6,8,30,96,2
-77,-20,-19,-14,-15,-21,124,-9,2
-94,-16,7,-4,-10,-18,-95,-113,2
31,18,-3,-1,1,-11,-120,-39,2
21,-4,-3,0,2,-2,87,107,2
26,-25,22,12,7,9,-40,11,2
18,-9,0,3,-2,6,45,-35,2
83,-6,2,3,8,12,29,-30,2
-50,-6,9,6,10,5,-73,-94,2
4,-4,-5,3,7,11,21,-21,2
-32,-12,35,-14,-22,-48,-57,-34,2
30,7,-36,-12,-15,-5,37,15,2
22,18,7,7,7,2,-61,-124,2
-104,-16,39,3,6,3,65,24,2
9,-19,-55,-24,-32,-23,-29,110,2
52,0,26,-2,-4,14,34,66,2
3,-20,-3,6,3,4,-9,89,2
-17,-35,14,8,3,-7,-112,-37,2
-67,-47,-5,-1,-7,6,113,11,2
-64,-26,-11,-3,-1,-3,-3,-72,2
-26,-21,-3,-1,0,1,-23,59,2
107,20,0,6,11,22,26,56,2
-76,-11,15,16,25,19,-71,30,2
-79,-8,-41,-26,-27,-42,-80,-112,2
-18,8,15,8,7,5,-38,-78,2
-51,-15,-7,1,-3,0,-64,-20,2
73,-2,4,1,5,8,23,61,2
-63,-17,3,-9,-15,-19,-47,-8,2
1,16,-18,-17,-23,-38,-43,-7,2
-2,8,-33,-14,-10,-8,28,-7,2
22,-1,17,7,11,17,67,50,2
109,-7,19,33,38,45,33,89,2
-33,-29,-10,-3,-3,1,127,60,2
52,30,-7,-22,-16,-24,-29,65,2
54,26,19,22,16,15,-74,-69,2
28,20,24,12,22,28,127,95,2
40,24,4,19,0,-3,-45,-19,2
77,18,0,-24,4,11,68,23,2
31,13,3,-4,4,4,-33,35,2
19,49,16,55,14,13,-19,127,2
-71,12,-26,2,-30,-44,58,-6,2
-105,-3,-7,-7,-19,-28,-112,-106,2
75,21,-8,-10,10,10,28,73,2
-37,3,0,-26,-8,-10,-39,-128,2
50,-1,7,-1,12,18,-71,71,2
13,-16,9,16,17,24,46,10,2
-120,7,-43,-39,-39,-66,-24,-48,2
10,11,-10,-3,0,-9,-47,48,2
-30,-1,13,2,12,14,8,-17,2
-9,-58,19,-1,-7,-14,-59,7,2
101,31,-14,13,-2,14,7,42,2
-23,-32,-12,-14,-10,-12,36,-43,2
29,18,9,-8,4,-2,-17,-98,2
42,7,36,25,18,32,0,28,2
-80,-27,-50,-18,-18,-25,24,-121,2
-56,1,-16,-18,-22,-18,-109,-78,2
-3,13,6,-14,-7,-12,-5,-14,2
42,28,5,16,11,16,91,93,2
-18,-19,17,12,9,18,26,-3,2
14,0,-1,-3,5,2,74,99,2
-49,-57,-12,-5,-14,-20,-109,20,2
-30,15,-21,-7,-13,-12,40,11,2
19,3,13,11,13,19,-23,-31,2
1,-2,-9,-8,-2,-8,30,-70,2
-8,4,44,17,18,20,-42,-7,2
-84,-21,-66,-17,-18,-21,60,-84,2
11,-17,45,7,12,8,23,80,2
-1,10,36,16,15,14,-41,4,2
9,0,-62,-17,-14,-18,-21,103,2
-33,-27,-9,-9,-9,-9,44,-56,2
83,51,19,26,28,36,-10,-6,2
-26,-48,-8,-6,-6,-2,28,-56,2
-10,29,-14,-32,-25,-40,-50,-6,2
-20,-12,-2,7,8,6,-38,-42,2
-18,-10,13,-2,-9,-3,18,-3,2
71,-27,14,12,10,16,-21,75,2
47,8,38,23,35,44,91,-9,2
76,-12,-6,-8,-10,-8,-48,67,2
-41,-32,-31,-14,-10,-18,-68,-113,2
-9,-18,-16,-3,2,6,78,119,2
-12,13,-24,2,5,11,31,-34,2
25,-6,78,13,11,11,70,123,2
-113,-57,-41,-14,-8,-6,-10,-79,2
2,4,-14,-13,-14,-23,-8,42,2
8,-21,4,0,-3,6,-8,-77,2
59,33,18,24,24,20,3,62,2
-3,-12,3,2,-2,0,96,25,2
-82,-29,-5,-3,1,4,88,-30,2
-48,-65,0,-7,-5,-2,70,79,2
-41,-8,-23,-7,-11,-15,-36,-31,2
100,21,57,35,47,66,26,-19,2
-5,60,-26,-31,-32,-53,-13,-77,2
50,-18,21,15,9,28,-37,-74,2
-20,-24,6,-3,-7,-2,46,97,2
22,22,36,6,9,13,-24,5,2
-89,-74,-57,-17,-18,-19,-20,-110,2
15,1,4,-1,-3,-1,-71,-83,2
-34,4,-6,-10,-11,-17,-57,-106,2
-25,-1,-20,-8,-11,-21,-20,43,2
16,36,31,10,13,23,-4,75,2
66,-12,20,12,16,14,127,127,2
14,13,-34,-10,-10,-18,-110,-27,2
26,21,-3,-2,-8,-11,-40,13,2
-38,-23,-2,-1,-3,-9,-81,-97,2
70,13,-9,2,9,9,65,124,2
63,30,8,10,13,14,-18,-14,2
17,-1,4,2,1,0,85,127,2
27,47,4,-3,-6,-16,-93,64,2
-17,-7,-11,4,3,7,-49,-128,2
-55,-9,29,-10,-19,-22,33,86,2
0,-4,-29,-9,-6,-7,33,31,2
50,10,15,18,23,30,32,78,2
-67,-21,-9,-9,-6,-24,-6,-25,2
-30,-20,-10,9,-4,-4,-20,-65,2
-37,-9,1,-8,-5,-9,-76,-14,2
-25,-5,6,-2,0,6,59,-5,2
-26,-1,9,1,0,1,0,-15,2
6,-1,-6,2,5,4,42,-24,2
45,27,-8,8,4,3,21,28,2
58,13,-50,-6,-1,3,3,7,2
12,9,37,7,11,3,28,127,2
-38,17,-25,-16,-19,-13,-46,6,2
-17,4,14,2,0,-2,-49,27,2
17,-3,-7,-4,-4,-4,50,105,2
-5,-4,3,7,9,13,27,87,2
-23,-65,1,9,13,19,-49,-51,2
-74,-8,-30,-24,-28,-41,50,17,2
43,6,19,6,-2,-1,-52,-56,2
30,13,-5,0,0,15,44,35,2
8,10,19,5,8,3,-45,31,2
-16,-14,-16,-2,-2,1,-15,-41,2
-44,-21,-6,-14,-16,-14,82,11,2
-50,-43,-13,1,0,-2,-12,-81,2
58,32,3,-1,3,8,-45,12,2
-44,-28,-7,-3,-2,6,5,-10,2
-12,7,19,-14,-20,-26,83,126,2
3,-15,-42,-20,-16,-20,-111,-78,2
-26,-30,-24,2,8,15,32,69,2
47,-18,8,11,18,21,20,43,2
-67,-9,-6,-6,-5,-5,-37,-56,2
10,14,4,0,-7,-11,-69,82,2
-71,-55,-17,-12,-17,-23,-22,1,2
71,33,8,1,-1,1,69,68,2
-12,-6,12,16,17,24,-9,-6,2
25,10,-5,-2,-11,-14,33,43,2
16,7,32,8,15,26,31,22,2
-95,-23,-20,-18,-21,-30,-74,-105,2
34,6,-6,-9,-8,-13,8,42,2
-36,10,24,14,8,12,-18,-28,2
-32,33,13,7,7,7,90,-20,2
92,-17,15,32,43,64,-88,-69,2
-13,44,-6,-8,-10,-20,87,44,2
28,6,-14,-16,-20,-24,-46,53,2
36,13,1,2,3,0,46,-3,2
56,32,23,7,1,3,45,-64,2
17,0,4,7,6,2,-128,-91,2
6,-19,-4,-6,-6,3,57,-5,2
47,-16,-7,-3,-5,-8,18,27,2
10,-30,-9,-14,-10,-18,-34,51,2
67,9,-1,3,4,14,26,108,2
-45,-24,-12,-7,-12,-17,3,-86,2
26,-15,-9,-3,2,0,-43,19,2
28,29,10,6,3,4,53,111,2
11,-28,9,7,5,11,-28,-101,2
-28,-23,0,-1,2,4,25,17,2
50,4,-6,-2,-10,2,63,12,2
-38,-17,-11,-11,-12,-23,-26,26,2
6,-9,12,10,7,25,70,65,2
52,65,13,8,9,3,-63,93,2
27,-35,-6,5,8,20,110,55,2
-41,4,-3,-16,-29,-43,-19,104,2
45,2,-8,-1,9,13,-42,66,2
-38,30,-12,-15,-22,-9,127,-13,2
-18,4,1,1,7,5,40,1,2
-64,8,-4,-4,-7,-11,-85,-87,2
-7,0,33,6,9,3,-89,-119,2
70,43,-12,9,13,14,7,42,2
-48,18,-2,-11,-7,-13,25,-8,2
22,1,-16,-4,-6,-6,-10,60,2
-21,-37,6,5,1,2,-99,4,2
24,20,3,-7,-10,-10,52,-28,2
7,-1,-14,-5,-6,-14,1,102,2
35,37,3,4,4,12,53,-4,2
-6,14,-12,-7,-6,-15,-15,44,2
46,2,13,2,3,3,-52,-36,2
28,37,-4,-2,-3,-8,-16,-3,2
-24,-22,-27,-4,-13,-13,12,-64,2
30,1,11,1,-6,-4,5,96,2
-28,12,-1,6,6,4,9,-60,2
-7,52,15,4,0,-8,-103,-81,2
-16,0,-2,4,7,5,45,69,2
-75,21,-10,-5,-2,-8,44,-47,2
-37,-26,-8,-4,0,-2,-75,-36,2
51,17,7,14,14,22,49,8,2
65,22,5,2,11,8,73,37,2
-50,-19,-14,-10,-19,-15,13,11,2
-9,9,45,5,5,8,24,81,2
-23,-18,-40,-3,5,6,12,-80,2
12,-35,11,2,3,2,-59,81,2
12,-18,7,6,11,12,102,-51,2
-21,6,-47,-11,-13,-30,-12,37,2
-99,-10,0,-11,-12,-13,35,46,2
-31,-6,-4,-9,-11,-12,-48,32,2
21,25,-1,9,8,11,-54,-114,2
-29,-45,-7,-11,-7,-9,106,96,2
-41,0,-11,-21,-28,-31,-116,29,2
91,55,17,8,9,9,87,-43,2
-10,10,-38,6,11,10,-13,30,2
3,-53,38,6,7,14,-86,-128,2
25,13,3,4,3,2,-23,-43,2
-36,-18,-3,-2,-4,0,42,26,2
-3,-17,-2,-3,-2,-2,-60,-28,2
30,1,1,11,8,15,25,-31,2
60,2,7,4,8,11,70,51,2
-128,-24,-8,-8,-6,-14,-11,-128,2
32,-12,4,0,-1,-6,-63,105,2
-21,-19,-6,3,4,5,47,127,2
12,21,10,0,1,-3,9,-95,2
-2,-18,18,2,1,-1,-23,-106,2
-2,7,-37,-10,-7,-11,-8,2,2
21,7,14,13,8,12,-70,3,2
39,-3,-9,-7,-7,2,84,25,2
39,33,-4,-2,-4,-11,-67,42,2
27,-8,18,-1,2,8,122,45,2
9,14,-1,1,0,-2,-40,96,2
-19,-28,-4,6,5,4,-40,-25,2
22,37,2,1,2,4,41,32,2
-18,4,14,3,4,9,14,-13,2
44,29,-2,-4,-2,-2,39,-31,2
-35,-33,-28,-3,-2,-2,-22,17,2
20,-33,6,-2,5,11,65,28,2
8,3,-9,-1,-9,-18,-71,1,2
-101,-12,-11,-10,-8,-6,8,-81,2
-22,-45,9,5,0,4,-22,53,2
40,-15,-4,0,0,2,39,82,2
8,-21,-4,1,12,12,94,53,2
-24,-5,-5,-6,-7,-5,-49,-58,2
-5,-12,12,3,3,0,29,89,2
-33,-28,-2,5,3,8,-26,-60,2
10,10,9,-1,-4,-10,-8,56,2
-15,16,1,1,0,-5,-23,-88,2
-20,-1,-1,-3,-6,-12,-65,-21,2
18,-4,-7,-3,4,7,72,62,2
-50,1,4,0,-3,-5,-22,-8,2
43,-11,7,6,6,8,-25,-7,2
-35,-11,-32,-14,-15,-14,-11,-125,2
-30,-13,3,1,0,-1,-28,38,2
37,23,-2,-4,-5,-3,74,10,2
18,-11,12,12,20,17,-25,77,2
9,35,5,-4,-4,-6,-11,77,2
-22,-1,-9,-1,-3,4,-29,-103,2
3,2,2,1,0,2,-29,-54,2
19,16,6,2,7,6,-4,70,2
15,-3,9,5,-1,10,23,24,2
-38,-12,-7,-3,-12,-4,31,-59,2
-29,20,20,-4,0,1,-50,-10,2
-15,-48,-23,-7,-12,-11,99,60,2
-14,21,0,0,4,-1,-61,20,2
-35,-15,-6,-3,-6,-6,-62,-59,2
14,-7,-4,1,-1,-2,34,-29,2
11,-18,-31,-6,-4,1,14,-32,2
-28,6,35,1,1,-1,-12,54,2
64,12,-1,0,5,-1,-26,-102,2
55,-17,6,4,0,2,-43,102,2
-5,16,-12,-5,-5,-6,49,-65,2
13,-43,1,9,3,5,-12,36,2
-15,-4,14,4,-2,-4,-96,-45,2
-49,-29,0,2,-2,-4,-7,-26,2
20,40,-9,-7,-8,-17,-5,52,2
0,-3,7,4,9,19,85,20,2
-2,-23,3,1,1,-9,-42,127,2
57,9,-1,-2,0,4,-13,-93,2
-19,-12,8,5,6,15,19,-89,2
72,50,-3,-3,-6,-14,19,26,2
-31,2,12,2,4,5,1,-24,2
-53,-29,-1,1,2,-3,-11,-91,2
13,-25,7,1,-8,1,20,70,2
-10,0,-16,-4,0,4,18,-43,2
38,14,6,2,5,6,-7,60,2
51,50,17,10,9,8,88,42,2
-56,12,-14,-12,-15,-18,-106,17,2
-49,-17,-17,-16,-8,-21,48,-7,2
57,29,-14,-2,4,7,8,68,2
-21,2,10,0,0,5,68,-50,2
2,-4,13,1,3,-1,-47,-29,2
5,5,-8,4,4,2,-44,52,2
-23,21,-8,-5,-6,-10,-63,-18,2
-18,-18,-10,-5,-8,-3,-26,-55,2
-13,4,-3,1,3,1,-1,-103,2
-10,9,10,6,2,6,-11,-112,2
11,-8,5,3,3,5,80,36,2
16,-9,-6,-2,-1,-2,30,95,2
-8,-17,-6,-3,-1,-5,22,60,2
21,1,12,5,5,5,41,58,2
0,-4,-4,-6,-8,-14,-49,-25,2
-86,-18,-9,-4,0,2,2,-11,2
48,-11,23,7,6,10,-36,-6,2
-5,-22,-20,-3,-1,0,58,68,2
19,20,-6,-2,-1,-1,127,35,2
-12,-14,-7,5,7,13,-16,-33,2
1,8,24,-6,-3,-10,11,115,2
-35,3,-62,-1,1,-2,-51,-83,2
3,-15,0,1,0,4,25,5,2
32,15,3,1,1,-11,14,127,2
-38,10,-5,1,2,8,7,30,2
26,-25,33,12,8,6,-82,-77,2
-50,12,-26,-22,-17,-18,30,95,2
10,-1,-2,4,4,-2,-9,-99,2
30,-13,-2,2,-7,-9,-51,96,2
83,6,10,-3,0,1,62,56,2
-24,-16,3,9,7,6,7,-3,2
-11,-18,-8,-10,-6,-6,-101,-27,2
-23,14,-4,-1,3,-2,125,-37,2
7,-17,8,-2,-2,-1,-58,12,2
-56,-17,6,3,-1,4,-22,-128,2
22,26,26,3,-2,-1,-39,20,2
9,-28,-22,-3,3,6,40,-30,2
-25,-5,-4,-6,-8,-9,-58,-42,2
-3,-14,5,3,-1,2,43,-53,2
-22,-16,0,2,-2,-1,-13,12,2
-34,15,-11,-7,-7,-11,-61,-121,2
-9,-26,0,-9,-17,-19,112,-4,2
39,-6,-4,-5,-5,-11,-104,105,2
6,-5,2,6,4,11,42,57,2
85,8,0,4,8,3,39,35,2
59,0,14,9,13,21,18,-38,2
71,39,3,3,6,7,18,-83,2
30,3,-2,4,1,-2,27,-6,2
10,-9,32,7,18,23,90,54,2
-98,1,-50,-26,-29,-37,-65,-42,2
-30,-19,2,3,7,14,55,25,2
6,-9,-2,-4,-2,-10,-32,6,2
60,29,22,14,18,24,30,59,2
-4,1,9,-2,-2,-5,1,64,2
-53,-11,-2,-9,-5,-8,53,71,2
-26,-25,-12,-6,-6,-1,-17,12,2
-23,-10,-35,-14,-14,-15,30,-72,2
80,-13,19,21,24,28,-49,97,2
-52,-7,-19,-8,-8,-14,28,-71,2
-60,-18,9,-8,-8,-8,19,23,2
-6,-11,-2,0,2,-10,-82,-78,2
0,6,8,0,-6,-1,-22,16,2
-27,-26,-4,3,8,5,-26,-64,2
30,19,0,1,-1,4,14,-69,2
11,14,-3,-1,3,8,-37,-76,2
-17,12,-3,0,-1,0,41,4,2
1,-7,19,4,1,-10,-29,92,2
47,48,-33,-12,-15,-5,38,15,2
-37,-11,-17,-2,-7,-7,-69,-56,2
-44,15,35,1,2,3,49,-4,2
57,7,7,9,6,10,9,17,2
-8,-7,13,3,7,1,-69,-21,2
-29,-8,1,-2,-7,-10,-64,17,2
-72,-11,-22,-7,-8,-12,-28,-82,2
-9,57,-19,-12,-7,0,29,-103,2
-48,2,-4,-2,2,3,15,55,2
-39,-31,-5,-1,-6,-4,-49,-56,2
-1,15,16,1,8,-9,18,81,2
23,7,17,8,-1,18,59,48,2
-1,-9,-16,-8,-8,-12,-26,-81,2
15,21,14,1,-3,-3,6,-25,2
21,13,1,11,11,10,-24,8,2
5,-11,-13,-6,-5,-10,93,92,2
63,21,16,6,14,17,5,71,2
-12,8,5,-5,-8,-10,-1,76,2
19,4,-22,1,2,4,1,8,2
-24,-13,23,9,9,12,-88,-86,2
38,39,11,5,10,5,29,50,2
-48,-13,-11,-11,-13,-17,-9,12,2
19,-13,7,3,7,3,32,60,2
28,30,1,1,-5,-3,-34,-15,2
33,-10,-6,3,3,0,-22,56,2
-11,9,-18,-10,-8,-15,70,127,2
11,4,17,5,2,10,26,-65,2
-82,-25,-12,-10,-15,-28,-73,-58,2
42,1,-6,1,-1,-1,-36,-32,2
24,26,-3,-1,2,2,40,73,2
22,1,9,2,3,14,33,31,2
26,-2,9,3,4,-4,-23,103,2
-11,10,-1,-1,2,6,100,-63,2
8,-6,9,3,5,5,-95,-76,2
-52,-20,9,3,0,2,16,-59,2
-18,-42,-1,3,8,2,-23,5,2
-48,-16,5,-8,-9,-9,45,-49,2
14,4,-1,-8,-7,-2,-17,-84,2
22,16,-6,-8,-1,-8,-33,-39,2
-22,-17,-6,3,3,5,12,51,2
8,-33,2,2,-2,-5,-19,20,2
-9,-41,9,7,9,15,58,34,2
-12,-13,-4,-1,-1,4,-11,-59,2
46,5,1,0,5,5,-68,-74,2
-55,-60,-2,-6,-14,-16,-7,-88,2
32,-4,-20,0,-2,3,23,105,2
9,-8,4,-2,-1,-2,-25,55,2
15,-9,-7,0,-1,6,32,-34,2
27,-16,3,-2,-9,0,36,15,2
27,0,-4,5,14,-6,-24,-11,2
61,26,-6,-5,-10,-6,-79,20,2
0,36,-4,-6,-10,-4,1,-57,2
-17,-4,-5,-3,-2,-9,-29,48,2
76,31,3,-1,1,-1,35,-33,2
-6,-6,13,7,6,5,-46,-57,2
34,-5,-12,-4,-4,-8,-17,-25,2
8,23,3,8,8,15,28,38,2
23,35,-1,5,2,6,-52,-24,2
-9,15,8,-17,-15,-19,17,32,2
-9,-15,-2,-2,-2,1,-26,24,2
15,4,21,15,12,18,-2,21,2
-45,-22,-6,-10,0,-2,-41,-35,2
-22,-15,-22,-5,-8,-3,81,1,2
-32,-19,6,2,8,3,-35,3,2
-30,51,-38,-15,-20,-17,30,-6,2
0,11,36,5,-3,8,37,-26,2
48,4,-28,0,4,0,-87,-5,2
-69,12,-7,-19,-20,-28,56,-6,2
-3,48,-14,-4,2,-9,-53,-102,2
-3,-3,4,3,0,5,20,32,2
-17,7,5,-3,-4,-6,-32,0,2
-67,-30,2,5,4,9,29,-84,2
20,-24,11,2,2,-1,-11,86,2
-14,5,-17,-9,-8,-4,81,-60,2
3,22,9,6,6,-2,-105,-47,2
57,1,21,25,33,38,13,-45,2
-77,9,-34,-31,-34,-34,78,66,2
15,-1,-6,-3,-1,5,42,36,2
-64,-25,21,6,6,10,45,-25,2
43,54,0,5,10,14,-30,-62,2
-57,-27,0,-3,-8,-14,-87,3,2
11,-12,3,-5,-7,-15,41,50,2
-4,26,-9,-3,-1,-3,7,-67,2
10,-15,-22,-7,-6,-11,8,80,2
31,4,32,13,18,17,-39,-58,2
-32,-9,-2,4,12,-3,-36,46,2
-46,-31,-8,-10,-16,-5,89,-29,2
53,13,4,-6,-12,-10,69,20,2
33,11,-16,-8,-3,-8,-6,52,2
-10,-25,20,24,24,33,-62,39,2
-73,-20,-10,-4,-4,-9,20,-95,2
13,23,-11,-12,-18,-21,8,104,2
-5,-35,5,7,9,12,8,-100,2
50,1,0,2,-5,-4,-23,17,2
6,15,16,8,5,6,-23,16,2
5,-13,-17,-1,2,8,-5,71,2
-68,-48,-16,-4,-4,-13,-81,-76,2
8,15,-7,-3,0,4,60,51,2
8,-8,-9,0,2,4,-26,38,2
8,4,1,-3,-3,-10,-12,-49,2
26,0,20,10,9,18,-44,-36,2
-39,-4,-5,0,-1,-3,45,12,2
15,1,-15,-10,-9,-7,51,46,2
-35,-4,16,8,6,-10,-100,-91,2
43,12,11,6,6,17,-16,-48,2
-65,-28,-1,-2,-9,-11,-3,58,2
13,-29,-14,-7,-4,5,103,40,2
-73,-5,2,1,-1,3,14,29,2
51,-17,26,9,8,10,35,115,2
40,36,-12,-2,1,-4,-58,-65,2
5,15,9,-3,2,-4,-46,8,2
-1,-20,-7,0,-1,3,-12,-18,2
2,-5,-16,3,7,8,9,-21,2
3,1,42,-2,-9,-5,-16,-28,2
22,-3,16,9,9,8,-6,-53,2
74,-27,-16,-7,-4,-2,-28,105,2
-89,-21,-16,-9,-7,-17,62,49,2
27,29,36,3,-1,1,27,-20,2
-11,-24,-61,-5,4,3,-5,35,2
39,-7,14,9,7,15,-1,29,2
-7,8,-3,-1,-2,-3,8,127,2
3,-9,-6,-6,-2,-4,-24,-32,2
-43,-40,10,1,-11,-3,54,36,2
33,45,-7,-14,-14,-23,1,-12,2
-10,24,-11,-6,-5,-6,44,-4,2
-57,-27,-25,-13,-13,-12,-2,22,2
12,4,9,3,8,10,2,3,2
-15,-14,14,10,10,14,1,-82,2
5,7,11,0,-4,1,38,43,2
-41,-11,-23,0,1,1,-52,-128,2
-60,-10,-10,0,1,-4,-3,42,2
52,-8,23,4,4,5,-6,-26,2
21,18,1,-2,0,-2,-23,30,2
-13,-21,-17,5,5,10,21,43,2
18,12,0,-3,-2,-7,-22,-9,2
-48,2,-5,-6,-9,-4,47,37,2
78,4,22,15,20,18,59,72,2
-45,-17,-1,-9,-9,-6,-27,-89,2
11,5,8,2,0,0,-39,55,2
-17,-7,-3,1,4,0,-99,-40,2
11,46,-19,-10,-14,-14,34,-128,2
11,8,-1,-1,-1,2,0,35,2
19,-11,8,5,11,-2,-4,10,2
-27,0,0,-4,-9,0,-15,-36,2
5,-24,2,16,19,14,-31,-56,2
-32,10,-11,-9,-11,-12,-11,-60,2
-30,14,-4,-9,-14,-18,10,8,2
10,0,1,4,7,7,13,-2,2
4,-17,-7,-4,-2,-4,30,46,2
-9,-11,40,7,-4,-3,3,-20,2
51,8,-63,-11,-8,-7,-4,47,2
-11,-10,-7,-3,0,-1,27,100,2
-26,14,2,-7,-4,-2,-17,-16,2
46,22,-8,1,2,1,55,71,2
6,-19,24,6,4,8,-30,-50,2
10,-5,0,-1,-2,-7,82,91,2
9,-15,-11,-5,-4,-6,-30,39,2
-12,-10,-3,5,4,14,31,-52,2
-41,-11,8,-7,-9,-10,-39,-22,2
11,-39,1,4,5,9,57,42,2
22,-21,23,10,5,6,-74,-5,2
22,5,-11,0,8,-7,-6,75,2
-45,-23,7,-6,-4,13,62,-38,2
-87,5,-8,-9,-9,-14,-61,-113,2
10,19,-9,-2,-3,3,-2,-12,2
44,-9,-11,-2,0,-6,-29,77,2
5,24,24,4,-1,-6,-59,-74,2
69,39,28,8,3,5,12,-34,2
-19,-3,-30,-7,-3,-6,5,-69,2
-2,12,14,7,4,5,-5,-30,2
1,13,-23,2,7,8,-22,5,2
-48,7,7,-2,-1,3,0,-85,2
-20,-8,-2,-9,-10,-14,-18,70,2
-10,-22,10,3,3,8,15,65,2
-30,-3,4,1,2,-6,26,8,2
27,-13,-1,10,20,22,-4,-5,2
52,8,2,-5,-4,-10,-20,-80,2
5,21,-10,-2,-6,0,-12,-70,2
35,4,-1,-6,-12,-17,-17,116,2
-31,7,-11,-1,2,-4,2,-20,2
-41,-20,11,3,5,9,-28,34,2
-3,6,-9,-10,-9,-14,92,71,2
20,-1,16,7,7,2,-94,-112,2
-53,-28,-11,-6,-9,-5,5,-17,2
35,-12,6,7,3,9,13,-11,2
-9,-18,-7,-10,-2,1,15,-59,2
-31,20,0,6,7,10,13,5,2
-37,-24,-12,-8,-9,-12,-3,-2,2
-38,-13,16,5,-1,3,4,-5,2
45,-3,-17,-3,-6,-25,-12,26,2
-28,-50,-10,-11,-15,-10,18,-22,2
48,38,-2,-3,-1,-4,-6,-21,2
-56,-17,-3,-3,-1,0,34,40,2
-29,-47,9,12,15,21,-75,-104,2
43,16,0,-6,-10,-3,127,102,2
40,1,-4,-4,-7,-14,-84,69,2
-42,-11,-11,-2,-2,-3,24,-85,2
-51,7,5,3,-4,-5,9,-11,2
-12,-30,15,17,27,36,-20,25,2
-74,-35,-10,-31,-43,-42,-54,-41,2
8,1,-2,-2,1,-2,-64,-2,2
30,5,9,3,0,6,-1,120,2
20,22,-5,1,7,5,-31,-66,2
22,12,-2,9,10,13,62,4,2
4,-2,0,-2,0,-3,12,27,2
27,36,10,-3,-12,-4,-35,-35,2
11,16,-26,-5,-4,-2,36,14,2
15,23,16,8,11,8,-33,59,2
59,58,-11,-6,-9,-11,8,-40,2
77,14,-8,8,13,14,-89,-1,2
9,49,11,-5,-8,-16,47,-84,2
81,3,11,11,11,21,64,85,2
-33,5,-3,-3,-2,-3,-5,-20,2
-62,-32,-30,-13,-14,-18,-60,-89,2
2,10,7,2,0,1,21,-66,2
9,-5,4,5,8,6,-19,62,2
-9,8,9,6,4,8,-40,-88,2
-31,0,-2,-3,-2,1,66,49,2
-36,-19,9,-8,-9,-14,5,127,2
-8,9,-37,-3,4,2,25,52,2
20,-34,15,9,5,21,-12,96,2
-13,-11,-25,-10,-2,-7,59,38,2
12,35,17,0,0,-4,-36,32,2
-19,-11,16,16,23,28,-79,-91,2
23,23,3,-5,0,-10,110,115,2
-30,-31,-11,-10,-14,-14,-73,54,2
15,0,-6,-2,-2,-2,49,25,2
19,-2,14,4,0,5,9,-49,2
51,-10,9,11,13,17,-10,-17,2
-12,21,3,1,1,2,30,28,2
-50,-8,-2,2,-1,-2,-70,-107,2
-16,-9,-12,-5,-3,-11,-17,33,2
19,21,6,-3,-5,-8,-13,-22,2
12,3,17,2,3,0,-4,-43,2
59,-12,-14,10,17,23,-15,39,2
30,-15,7,-11,-19,-23,39,11,2
-36,-22,10,0,3,9,55,-1,2
-22,-8,-22,-9,-8,-14,-8,-17,2
31,6,-1,0,-5,1,-11,15,2
-40,-38,12,0,-4,1,14,3,2
16,-28,5,-3,2,6,5,-11,2
-19,0,7,4,18,16,-35,-92,2
1,4,-7,-14,-20,-16,75,71,2
-16,-6,-13,-2,4,-5,4,-79,2
-33,2,-9,-8,-18,-29,-97,-24,2
7,-27,6,5,4,8,46,-89,2
18,22,-7,-2,4,2,-12,-25,2
-31,7,-3,-7,-9,-7,-6,16,2
39,8,-8,0,3,4,23,34,2
-2,3,1,6,2,5,5,111,2
-29,-27,21,4,3,0,46,38,2
-11,29,-12,-9,-18,-18,-3,-52,2
-27,-3,-3,1,1,3,18,-49,2
-21,-12,-11,-9,-14,-13,4,22,2
0,-7,15,5,4,14,45,-5,2
47,26,-14,5,12,9,-46,-30,2
-2,0,10,-4,-2,-6,84,40,2
97,0,-6,10,7,4,-88,-20,2
-16,-9,-2,-5,-3,-9,-95,48,2
8,12,10,1,1,4,17,23,2
-24,-12,-11,-1,4,-8,-62,40,2
33,0,5,9,3,15,91,12,2
28,-8,8,2,4,3,10,17,2
-59,-7,-1,-3,-1,-1,2,-38,2
-5,-8,-9,0,2,-1,23,127,2
1,4,5,-7,-13,-12,-48,48,2
-36,-25,-17,0,0,0,-59,-68,2
12,-29,7,3,3,5,24,16,2
31,-19,6,5,5,14,-33,-41,2
-22,7,-15,-12,-13,-21,-48,-44,2
-3,0,-2,0,1,-3,-16,-33,2
3,-15,9,5,4,6,62,99,2
-10,-19,-3,1,-4,-2,-16,29,2
11,3,27,4,4,8,43,45,2
-15,-36,-26,-3,4,3,-76,-98,2
9,32,-12,-12,-13,-16,5,66,2
-19,-7,-11,-5,-3,2,23,-71,2
-42,-2,-1,1,10,4,37,-45,2
4,-48,19,8,5,8,-11,4,2
42,19,-3,2,6,4,-26,-22,2
-9,-8,18,-4,-7,-6,47,-19,2
34,9,-1,4,3,7,-43,-21,2
8,13,-1,-2,0,-5,29,49,2
9,-42,0,1,0,-1,-97,68,2
-21,18,-3,-3,-2,-5,-1,-128,2
35,-2,8,3,4,11,78,66,2
10,12,8,7,4,6,21,-66,2
-9,-15,-14,-9,-14,-20,32,97,2
4,-4,-8,-2,-6,2,-21,-50,2
11,-15,5,4,1,9,5,39,2
-22,17,-16,-11,-13,-20,19,121,2
-9,-18,12,7,7,7,-1,-86,2
1,0,4,1,4,7,-33,108,2
-43,-24,-35,-12,-5,-9,4,51,2
-53,14,6,-2,0,0,35,-64,2
1,6,1,-2,-2,-1,14,30,2
-16,-2,-20,-4,-4,-10,-2,54,2
-7,12,41,9,5,6,38,-59,2
57,-12,-11,0,-1,0,-36,66,2
-49,-6,-17,-11,-9,-10,49,-82,2
15,28,18,4,3,-1,-16,63,2
-17,14,-23,0,5,-11,14,5,2
46,0,5,1,-2,8,26,-72,2
-29,24,7,-4,-12,-2,-68,-79,2
9,2,-11,-7,-9,-16,-13,15,2
-27,-11,10,3,-3,-10,-93,-34,2
-29,4,-6,-9,-3,-8,3,-31,2
21,6,-3,6,11,12,53,54,2
-22,19,4,3,7,-1,-75,-69,2
4,18,-8,-4,-8,4,57,56,2
-9,-9,-5,-3,-4,-6,-30,29,2
56,27,19,6,9,9,33,25,2
-4,4,-34,-9,-5,-5,-3,-39,2
41,7,15,9,16,8,21,4,2
32,10,18,9,4,19,49,51,2
-64,8,-21,-20,-18,-38,-47,-100,2
24,-12,1,5,3,5,31,52,2
-17,8,3,-4,-3,1,-21,-86,2
2,0,7,1,0,-2,-51,-96,2
12,13,-11,1,4,6,43,76,2
20,-14,8,1,0,1,28,-36,2
-16,-31,-3,-4,-3,3,-42,27,2
-10,27,1,0,2,-6,-36,4,2
12,11,15,7,5,3,-42,20,2
-18,-5,-6,0,3,3,26,-45,2
-42,14,-17,-19,-14,-12,37,49,2
-59,-14,-11,-4,1,2,82,-94,2
21,33,-4,-8,-9,-11,-34,-20,2
36,41,-8,5,6,8,-15,-17,2
-21,-4,19,4,-1,2,-16,-70,2
32,-1,-31,-9,-1,-2,73,68,2
0,-35,7,6,9,8,25,19,2
-35,-19,10,1,4,-6,-32,-104,2
53,16,13,2,-6,4,-9,9,2
-51,-6,-27,-6,-11,-16,-84,-60,2
-24,-36,2,4,-1,3,15,-16,2
-2,-25,-10,-7,-6,3,63,69,2
47,-27,-2,-3,1,-4,-30,-49,2
-4,-13,13,-1,-4,-8,-81,19,2
-35,-29,-13,-6,-3,-3,36,43,2
-10,2,-2,-4,-7,0,54,-44,2
48,-7,-4,0,-3,-7,5,-120,2
33,6,15,8,7,10,34,-57,2
37,5,-7,0,3,6,-2,-33,2
-5,-29,11,3,4,3,-34,19,2
-7,-14,8,4,6,9,33,83,2
41,-29,-20,-4,-3,1,25,45,2
40,3,27,10,5,5,-76,-96,2
-4,3,-20,-9,-12,-10,109,59,2
-23,-22,8,3,5,-1,-27,20,2
-12,-19,4,-6,-21,-11,-7,-28,2
-8,-12,22,3,4,8,31,-12,2
-2,-32,-18,-2,0,-3,-65,97,2
-3,-2,-2,-13,-11,-6,9,40,2
55,0,19,14,17,20,26,90,2
-12,-22,18,5,5,3,44,90,2
-16,26,-36,-12,-9,-13,-73,-128,2
-18,-26,-12,2,2,4,63,86,2
105,62,26,18,24,19,-49,108,2
-45,6,-16,-4,-3,0,10,31,2
-9,-14,31,2,0,-3,60,58,2
5,-14,-43,0,1,-1,-51,38,2
-37,6,11,-6,-5,-13,-27,38,2
-29,-20,-16,-6,-3,-11,-45,-50,2
-3,7,16,-1,-12,-2,-17,-71,2
-15,16,1,3,11,4,20,-22,2
-2,-14,-1,-1,-8,0,8,-43,2
-9,19,-12,0,-4,-2,22,9,2
-12,-17,4,-3,4,-1,-20,84,2
2,18,-1,-6,-5,-10,-49,-92,2
-38,1,-7,-5,-3,-9,15,29,2
40,13,-2,0,-3,-5,-14,-39,2
15,17,10,8,7,9,29,64,2
-66,3,0,-1,-3,-2,-6,-67,2
-66,-25,-10,-7,-5,-10,1,-18,2
8,23,-6,-4,-1,1,-4,-13,2
9,-8,3,5,7,3,-42,-80,2
31,17,0,-2,-9,-3,0,1,2
24,9,2,3,-1,6,38,-80,2
32,3,11,3,2,7,27,57,2
-36,-14,-21,-7,-4,-10,-17,48,2
-25,-11,0,2,1,0,-24,26,2
14,26,5,7,11,4,-54,-30,2
44,-20,-1,-1,1,13,49,47,2
-8,25,2,-8,-5,-6,87,80,2
-28,5,-2,-8,-3,-6,6,43,2
16,4,1,0,11,0,11,42,2
-40,-13,0,0,-9,3,8,-44,2
-32,-34,-8,3,5,14,41,7,2
6,-23,14,4,0,-4,-69,-127,2
14,-10,-30,-8,-6,-10,15,-31,2
-22,41,-20,-8,-3,-10,39,75,2
56,48,22,10,6,11,-1,-99,2
-4,24,-8,-2,-1,1,1,-15,2
39,30,-14,-2,-5,8,51,43,2
3,-23,44,0,-1,-4,19,-46,2
77,24,-27,-4,-2,-8,-91,-62,2
37,14,11,6,6,6,10,53,2
-45,-12,12,-1,-1,4,51,-29,2
18,-2,-8,3,7,13,101,45,2
4,1,9,1,4,1,57,68,2
-61,-15,3,-1,3,3,-42,70,2
-35,-21,-2,-3,-9,-7,-73,-32,2
-51,-16,-30,-21,-20,-40,-92,-7,2
-16,-2,11,1,-3,-1,-69,-21,2
16,-8,-12,3,5,10,57,-24,2
-12,-18,5,-2,-4,-7,-35,30,2
-56,-43,-3,1,1,11,-26,-22,2
-45,-44,-4,-1,-1,-6,7,-6,2
26,13,10,-1,-1,1,9,55,2
5,3,3,-5,-4,-2,9,8,2
-43,-27,-18,-1,4,3,-17,-56,2
32,-28,-8,-4,-9,-4,-21,-63,2
-22,-14,7,-1,-7,-3,16,39,2
-17,-34,-17,0,4,7,-13,5,2
37,-11,-11,-6,0,-20,59,93,2
82,-6,29,10,8,13,-72,89,2
-59,-20,-38,-14,-12,-12,54,-70,2
15,-34,11,4,1,-3,-49,-80,2
32,15,4,6,10,6,-32,69,2
-40,-12,5,6,7,7,-53,-77,2
-10,2,-9,-11,-16,-23,50,68,2
-20,-1,-7,-5,2,-3,9,-32,2
35,-11,12,13,12,17,-38,-48,2
9,-9,17,-2,-4,-1,53,41,2
25,13,-5,6,6,3,-14,74,2
-34,24,-4,-7,-8,-3,-2,-26,2
-38,-7,6,1,1,-2,-12,-28,2
-6,15,-2,-2,-10,1,12,9,2
18,-7,5,-1,13,3,-9,1,2
9,27,0,1,-4,-4,15,54,2
-39,-23,1,5,4,10,-19,-41,2
-30,-17,-6,-5,-5,-7,90,96,2
42,5,-4,5,4,5,-42,-51,2
-27,14,3,-3,-1,-4,-54,-87,2
-31,-4,-1,-1,-1,9,65,44,2
26,-9,-5,-4,-6,-14,-63,-56,2
17,34,3,0,-4,-4,4,-58,2
67,3,24,13,16,18,67,19,2
41,44,-9,-5,-7,-6,-49,-82,2
2,29,-15,-11,-12,-21,-1,61,2
56,28,11,3,1,2,-51,-31,2
32,-12,4,-1,-4,-3,25,61,2
33,14,-18,-3,3,5,-18,-27,2
59,32,8,0,0,2,24,65,2
-15,-30,-3,0,-1,0,32,-38,2
15,23,8,0,-1,-5,-44,-2,2
5,-5,5,-3,-11,-13,8,12,2
-40,-8,-9,2,8,10,-35,-32,2
18,0,11,5,2,-18,35,34,2
-22,-3,1,3,2,6,13,-63,2
12,18,2,8,13,49,3,80,2
-49,-5,-6,-6,19,1,-42,-74,2
-3,34,4,3,-1,-3,-1,-91,2
-29,4,-8,-5,-14,-37,-7,75,2
28,16,5,-1,-12,-22,-10,20,2
-34,-36,-30,-1,6,19,-6,-71,2
-27,-31,3,7,19,17,-58,16,2
19,33,-12,-14,-18,-20,82,106,2
-48,-9,-9,-9,-14,-22,-33,-124,2
13,5,10,6,-1,11,28,-24,2
0,-12,6,1,4,9,-2,18,2
-42,-23,-8,-1,5,13,-7,5,2
77,39,21,8,12,9,8,48,2
-17,6,11,-2,-7,-15,21,-54,2
-44,-4,-10,-6,-11,-5,-13,9,2
4,-6,15,6,9,7,25,7,2
-8,-7,-3,-1,-7,-11,-63,-27,2
-35,3,-3,-4,-5,-9,-12,16,2
25,31,-2,4,-3,1,-3,-15,2
15,2,-6,-11,0,3,-15,-30,2
11,-5,-1,-1,-4,2,22,39,2
7,-5,-1,-1,-2,-3,7,33,2
-15,-10,0,-2,-6,2,-18,-33,2
-33,15,-5,1,3,-1,3,12,2
-46,-15,7,-6,-5,-11,20,-82,2
0,-18,-41,-14,-13,-15,-66,66,2
38,29,7,-5,11,19,53,-4,2
-40,22,-15,-5,-16,-20,-92,66,2
16,-6,3,0,2,7,-5,25,2
-17,-3,18,7,1,2,39,-30,2
23,8,1,3,4,3,25,-2,2
15,13,7,4,5,6,-44,-39,2
-47,-23,-6,-3,-2,-2,8,-56,2
15,12,1,-1,-3,-9,-16,-4,2
-47,-14,-6,-5,-5,-3,6,10,2
7,-16,3,0,3,9,36,2,2
-3,-18,-11,-7,-3,-10,-19,6,2
83,-11,12,14,12,17,-15,9,2
-35,-40,-21,-7,-7,-12,88,39,2
19,0,7,-5,-5,-12,6,-53,2
12,-9,5,6,9,5,10,3,2
-34,22,2,2,-1,-1,-16,-63,2
78,42,16,6,7,6,-15,106,2
-33,8,26,5,1,1,-16,3,2
24,-22,-63,-8,4,-3,22,113,2
20,9,23,11,9,30,90,-79,2
23,9,-10,-13,-13,-27,-40,110,2
2,-6,-6,-7,-4,4,62,49,2
-7,-2,19,4,-1,1,-19,-126,2
5,6,5,4,8,8,44,100,2
-55,-21,-15,-4,-3,-4,-75,-128,2
8,-13,-2,3,6,8,58,-5,2
-26,13,-4,-12,-15,-35,-83,80,2
0,-16,-8,-2,-5,-4,3,-34,2
26,-4,14,6,1,8,29,-8,2
-49,1,-9,2,5,-2,-31,-79,2
42,15,10,2,1,3,48,-6,2
1,8,-5,-5,-3,-16,-106,14,2
-39,13,15,-4,-6,-8,33,-39,2
63,36,-8,2,4,7,-14,-76,2
-29,-4,-1,0,1,6,29,31,2
-6,-35,-36,-13,-8,-10,21,48,2
-43,0,21,-4,-9,-5,-17,-45,2
-29,-23,-16,-4,0,-1,-24,46,2
48,3,24,4,7,2,9,44,2
-19,-31,-4,-2,-2,-4,5,63,2
63,-7,0,10,8,13,-3,-23,2
85,4,15,14,17,17,94,100,2
-65,-25,-29,-28,-35,-42,-67,67,2
-20,10,6,-2,-4,-7,2,36,2
-6,-11,-7,0,-2,3,-13,50,2
25,3,10,5,6,15,-1,-88,2
-39,-36,15,18,17,28,71,-100,2
-9,22,-2,-9,-10,-15,-10,-35,2
-60,-23,-14,-6,-3,-3,-24,-6,2
-1,0,-4,-4,-7,-9,-62,-4,2
40,1,16,12,11,26,-17,36,2
-102,9,-10,-12,-14,-16,47,-76,2
17,-8,-5,-2,0,-1,-10,105,2
-7,-29,4,1,-6,1,5,37,2
-7,7,-10,-3,3,-6,-50,-80,2
34,-11,11,5,8,16,10,40,2
43,-14,12,6,7,10,56,88,2
-47,18,-30,-12,-10,-15,-35,-65,2
31,19,18,3,4,2,-1,-67,2
46,-10,19,12,10,11,22,60,2
11,28,-14,-12,-10,-11,-8,-43,2
-34,-42,-9,-7,-8,-7,43,34,2
17,2,6,4,3,5,9,-13,2
-9,-6,0,2,13,4,-16,-62,2
4,2,1,0,-10,1,-3,-15,2
8,-1,5,5,8,10,19,40,2
-51,-5,-4,0,-6,-5,-27,14,2
-25,-7,-3,-5,-1,-2,88,30,2
-6,0,-3,-4,-8,-18,-48,2,2
-40,0,-1,-1,-2,-5,-64,-83,2
55,21,9,9,11,15,22,42,2
66,33,-12,-2,-7,-7,-78,-31,2
-4,29,1,1,2,-8,-73,-85,2
-57,-33,-5,-5,-6,1,-18,-16,2
4,-5,-5,-4,1,0,38,33,2
-1,-9,13,15,12,12,-6,-49,2
43,38,2,-8,-11,3,26,98,2
4,9,-3,-8,-8,-16,-50,6,2
-30,-14,-4,-1,-3,0,34,37,2
28,2,3,-1,-1,0,18,52,2
-43,-15,-1,6,12,10,49,25,2
-22,11,-4,-2,-3,0,0,51,2
18,-8,2,0,0,-5,-3,75,2
-41,-22,-7,-9,-13,-8,-25,-51,2
-7,-13,3,1,7,1,62,5,2
34,-14,-10,-1,0,0,7,-28,2
-2,3,6,4,5,5,18,-27,2
-9,-3,-1,-8,-11,-22,-91,11,2
1,-27,-19,1,9,3,0,-97,2
18,10,5,-2,-6,-3,16,-37,2
17,-13,0,-6,-2,2,21,51,2
37,-26,8,11,14,16,92,57,2
-80,-14,-6,-3,-7,-10,-54,-6,2
28,-13,-3,-8,-5,0,8,54,2
4,-9,-1,4,5,5,-28,-73,2
-62,0,-6,-7,-7,-2,-2,84,2
51,-24,-1,6,7,11,50,21,2
7,28,36,6,2,-3,-2,66,2
38,8,-51,-10,-9,-7,-31,93,2
7,-4,4,-1,0,3,23,-37,2
15,11,10,10,8,9,-50,-4,2
-32,-6,-18,-19,-17,-17,5,8,2
-5,-6,2,-6,-5,-14,-16,-10,2
2,3,5,3,2,1,-5,-47,2
-15,12,-17,-6,-3,2,-17,-20,2
44,-2,22,18,19,13,-10,-55,2
-28,14,4,-11,-19,-16,0,-37,2
-23,12,-11,-3,-1,-1,-24,23,2
-52,-17,4,-8,-9,-12,39,49,2
-8,6,3,4,9,12,-28,-64,2
-55,-10,-12,-6,-5,-11,2,18,2
-9,0,12,1,-4,0,-13,-103,2
63,3,5,4,2,9,12,75,2
-30,3,-15,-8,-13,-14,-4,127,2
21,-14,5,3,6,4,-16,-59,2
-15,-18,3,2,4,9,-3,34,2
22,34,-1,0,-1,-7,-95,-95,2
-9,-47,-1,4,4,-3,33,31,2
-1,6,23,-1,3,6,35,-33,2
-46,-1,-21,-12,-19,-15,-39,-57,2
5,-15,-4,-2,-2,-5,-26,-22,2
-9,-12,5,11,11,17,-6,-26,2
46,3,4,2,-4,-3,-44,55,2
-2,19,-8,0,5,-2,46,18,2
-19,-3,-2,-2,-6,-6,-57,-25,2
34,7,-1,-1,1,3,35,-22,2
-1,-23,21,7,6,11,22,-22,2
7,7,-19,3,0,3,-5,64,2
30,26,3,3,2,1,-15,-20,2
15,7,12,7,10,5,52,70,2
12,1,17,0,0,15,-25,44,2
18,-16,-13,-12,-9,-16,28,67,2
-12,6,4,0,0,2,35,-35,2
-12,0,-3,-4,-4,0,14,39,2
30,7,-9,9,10,6,31,-10,2
25,7,15,4,7,3,-42,14,2
7,9,-3,-2,-4,-6,7,29,2
-9,-4,-21,-12,-8,-10,44,-33,2
-1,-7,0,2,3,-4,4,-26,2
-51,-46,0,-1,1,-1,0,69,2
43,-9,5,-1,4,2,3,-38,2
7,5,-10,1,2,3,-28,2,2
-52,-17,-17,-7,-10,-12,43,-81,2
36,18,17,7,6,4,-80,17,2
-34,-21,-5,-3,-1,3,93,111,2
-3,22,6,2,1,-1,-7,18,2
7,-4,-1,-4,-2,-1,10,66,2
-51,-15,-2,2,5,7,-4,-87,2
-10,-1,-6,5,4,1,34,-23,2
9,-13,-4,-1,-4,-2,0,-98,2
7,11,-20,-5,-1,-4,-32,-2,2
36,20,12,-1,-8,-7,-34,-9,2
-40,-30,1,-4,-4,2,-8,-93,2
-22,-4,-7,-3,1,-4,-13,21,2
-15,-9,1,-3,-3,-6,95,91,2
23,14,-9,-7,-10,-16,-67,-63,2
-9,-14,0,-1,0,4,-4,-4,2
43,1,4,5,4,8,-13,-68,2
-24,0,4,4,-5,-5,-14,-21,2
41,-4,-1,1,7,8,44,16,2
-9,-5,-4,-4,-6,-7,21,60,2
-4,-11,-1,-3,-3,-6,-50,-32,2
-33,7,-11,1,-3,-2,-8,-48,2
18,-2,6,-3,-8,6,41,-15,2
25,8,-3,1,3,5,37,25,2
-52,-37,5,2,-1,-12,-29,-54,2
28,-11,7,1,8,12,12,-61,2
0,23,-16,-9,-12,-21,-49,35,2
-1,-15,12,0,0,0,21,69,2
54,13,8,4,6,11,28,51,2
8,3,-1,1,3,-2,-10,78,2
-18,-24,4,5,5,8,43,72,2
29,0,-12,-3,-1,-2,45,73,2
9,16,-7,-5,-5,-7,-44,-75,2
12,-8,-8,-5,-4,7,59,83,2
53,42,6,4,8,6,-14,-45,2
2,20,0,-10,-2,-5,-90,-16,2
-32,-26,-12,-3,-5,-4,16,1,2
8,10,5,0,3,5,-37,-72,2
-32,-6,-2,-2,-1,-1,11,-46,2
-78,-30,-3,-4,-7,-5,-36,-89,2
-15,-28,-5,-6,-6,-8,-52,7,2
-1,12,7,2,2,-1,-54,-38,2
-17,-8,9,1,2,3,115,44,2
-5,17,-25,5,8,6,-27,-119,2
-9,-6,18,0,-3,-3,48,48,2
-29,-1,-12,-2,-5,-11,-74,-112,2
33,7,11,0,-2,-2,-20,-18,2
24,10,15,5,4,7,2,-10,2
-7,0,-7,-4,-5,-7,48,27,2
-29,-18,5,4,11,1,18,-2,2
0,0,-5,-3,-3,-1,-3,-69,2
-2,5,9,1,-2,-4,-21,13,2
-15,12,-7,0,2,3,-11,13,2
-45,-24,-1,-2,-3,-6,17,-19,2
5,-13,1,11,1,1,-5,33,2
-20,12,5,-6,-1,-4,-32,-75,2
-18,1,-13,1,-1,4,-5,84,2
-17,-6,-9,-9,-8,-5,56,-21,2
-15,1,-4,-2,7,1,-13,-37,2
28,17,13,6,2,-3,3,65,2
30,-23,-7,4,7,7,-21,23,2
19,5,4,3,3,3,17,-7,2
-34,-20,-6,-3,0,0,-38,-66,2
1,-3,2,-1,0,0,19,105,2
5,-17,2,-5,-4,-8,-2,-75,2
-31,-22,-6,-4,-6,-5,-24,31,2
-31,-18,5,4,9,14,-5,39,2
-23,-10,-13,-8,-13,-11,94,53,2
-4,22,-4,-6,-7,-10,-60,-119,2
8,9,0,-2,-1,-1,-15,-5,2
24,7,16,4,2,2,5,73,2
15,-7,-3,6,8,10,34,-32,2
-26,-1,4,-4,2,-2,38,51,2
-4,-3,-6,-1,-9,3,-27,-8,2
22,0,1,1,3,-4,-5,50,2
19,16,4,-1,1,-6,18,-49,2
28,-3,-3,4,9,7,60,22,2
1,0,3,-1,-3,-2,-100,-37,2
-9,12,-12,-8,-7,-7,-28,-23,2
-20,-19,-8,-3,-2,-9,30,48,2
13,-15,5,3,3,13,82,8,2
26,30,4,1,2,-8,9,96,2
39,-5,12,8,4,7,-45,-6,2
7,6,3,-5,-5,-16,-40,32,2
3,40,-9,-9,-8,2,-2,15,2
28,10,-26,-4,0,-7,5,-29,2
-10,29,-6,-5,-5,1,75,-36,2
30,-13,23,10,9,12,-86,-3,2
23,-14,16,7,0,4,58,120,2
0,21,-21,-8,-5,2,50,-36,2
-15,-4,-18,-4,-2,-1,26,-20,2
68,-8,2,-5,-6,-6,-43,8,2
-32,-24,-8,-6,-10,-11,-28,-66,2
41,-20,1,3,5,5,-10,-9,2
-20,-31,-1,2,12,6,116,-18,2
-7,-15,-8,-8,-21,-23,-75,28,2
7,-16,0,-1,5,4,-2,-68,2
-75,-35,7,-1,-3,-6,-42,41,2
60,0,2,-7,-6,-1,39,15,2
-63,-20,-7,-3,0,9,31,-72,2
7,-4,-5,-4,0,-3,-13,64,2
-2,-21,13,7,5,9,-27,-35,2
25,-17,2,-2,-5,-4,27,65,2
-24,16,-10,0,5,4,0,-38,2
23,-12,6,5,1,4,42,62,2
13,-11,6,0,5,0,98,127,2
-45,-15,-1,-2,-1,-7,-87,-110,2
36,25,4,12,-1,11,-13,26,2
-10,11,2,-12,0,0,-91,-105,2
28,13,3,-3,-5,-5,65,90,2
-34,6,-8,-4,-6,-7,-17,-33,2
-27,-18,-4,0,2,6,8,-28,2
-49,-20,17,4,7,6,-68,-2,2
9,1,-35,0,-2,-1,41,-43,2
8,19,22,-6,-2,-9,-31,33,2
-2,8,-19,-1,7,7,77,0,2
29,7,32,21,-1,-5,7,-13,2
-3,-9,-17,-21,-6,-2,4,-22,2
-75,-42,6,30,3,12,1,48,2
27,-22,-12,-11,1,-1,28,50,2
31,4,8,16,15,13,-52,-7,2
-16,22,9,7,-4,-11,75,-39,2
19,14,-12,-19,-8,2,2,81,2
-40,-13,0,-3,-3,3,115,39,2
-4,24,-13,-6,-4,-15,-91,-10,2
35,-2,20,5,7,6,-19,10,2
14,2,-7,-7,5,-2,43,-35,2
78,48,-1,1,-3,4,50,5,2
2,12,-10,-5,-9,-12,-24,-71,2
-78,-23,5,-1,-1,3,-55,-38,2
33,8,-3,-1,3,4,49,70,2
-20,-8,13,7,4,-5,-100,83,2
47,2,-12,-9,-4,-1,57,-14,2
-24,-14,1,-3,-2,3,2,60,2
-2,-11,7,5,3,-6,-49,-19,2
-15,4,-9,-10,-1,3,43,-3,2
-44,7,-13,-11,-16,-8,-33,21,2
7,2,6,-1,-3,-5,37,84,2
40,8,5,-2,-10,-3,30,29,2
-5,-4,4,1,-1,-6,-58,-33,2
-5,-4,-6,4,6,-1,22,-49,2
18,22,7,2,1,2,-80,-84,2
-97,-23,-11,-1,0,-4,-46,-7,2
16,-38,-9,-4,-6,-4,17,27,2
5,19,-9,-5,-3,-9,32,107,2
21,-2,10,11,10,12,37,59,2
13,13,-12,1,-2,-3,-44,-59,2
-19,-3,7,-2,-3,-1,-44,-90,2
-11,8,0,-2,-3,10,2,-89,2
-84,-31,-5,-9,-4,-9,-37,-81,2
45,21,-3,-4,-5,-3,59,68,2
-39,-19,10,-2,-4,-8,-3,-12,2
28,-6,-46,-3,10,9,44,59,2
-10,31,28,5,-5,-4,-105,-117,2
-11,12,-33,-1,0,0,-13,-39,2
3,11,-17,-8,-1,-1,26,-14,2
-10,4,21,2,-4,2,-16,-24,2
17,5,-14,0,2,-3,-27,-6,2
-17,-13,10,2,4,2,-41,-78,2
33,68,24,21,20,24,77,74,2
-5,2,-16,-18,-26,-29,-72,-25,2
43,4,-1,6,4,4,29,8,2
-13,16,4,-5,-9,-13,44,87,2
5,7,2,6,11,9,-17,-102,2
-28,-24,12,2,3,14,127,63,2
24,15,-3,-5,-13,-37,-95,-53,2
1,-36,-14,-4,-3,-7,56,28,2
-26,-5,0,-2,-5,2,74,-3,2
12,-10,11,-2,1,-11,-27,27,2
-22,4,14,0,0,6,8,23,2
9,-16,-17,0,2,3,-38,-10,2
39,-17,-4,-2,-1,-6,14,95,2
-4,-37,5,5,8,9,81,26,2
7,-24,12,5,5,7,17,77,2
16,-22,15,-5,-6,-4,89,19,2
13,-4,-13,-7,-9,-16,-53,-13,2
31,-20,-11,11,15,25,107,28,2
-55,-23,-41,-25,-31,-35,-55,-77,2
12,-15,12,3,2,13,-46,-70,2
8,27,-7,-9,-11,-24,-14,-70,2
24,-17,14,9,5,9,-64,51,2
26,-20,2,9,9,24,28,66,2
-67,-9,-12,-8,-7,-13,-29,-101,2
-33,-22,-5,-3,-7,-11,-38,78,2
-15,10,16,1,-15,-3,-44,-77,2
34,12,9,3,5,9,102,64,2
75,13,2,8,13,12,-59,31,2
-41,13,-2,-11,-10,-8,16,-14,2
-17,6,-1,-8,-5,-13,-6,-69,2
37,1,11,8,4,10,55,110,2
-47,2,18,1,4,2,-31,79,2
22,-45,26,10,7,13,-8,-118,2
-17,14,-43,-8,-7,-10,-14,-52,2
-49,-10,-6,-6,-4,-2,-12,-2,2
56,23,9,8,13,12,13,-29,2
-9,-17,-6,3,3,4,-71,11,2
-21,1,14,2,7,12,7,36,2
6,-26,-6,1,10,6,21,16,2
0,48,-7,-5,-6,-1,80,-27,2
-9,-15,-5,-7,-12,-20,-98,-57,2
20,1,4,-1,-1,-4,3,117,2
11,5,-3,8,4,8,11,-78,2
15,-6,5,8,5,5,19,8,2
-10,0,1,-1,3,2,23,34,2
-30,-16,-1,-4,-6,-2,0,-11,2
11,-2,-3,-2,0,-7,-21,-82,2
-4,-11,-6,-2,-3,-2,-2,26,2
-9,11,-25,-1,1,7,67,-41,2
-33,8,1,-2,-2,-11,-38,39,2
39,13,20,2,4,5,21,-61,2
-49,3,-25,-10,-12,-12,-54,-10,2
35,11,15,15,18,25,47,69,2
-22,7,-11,-17,-21,-21,39,127,2
-29,30,-10,-6,-6,-6,-35,-81,2
6,-10,25,13,14,17,92,9,2
-7,27,-22,-20,-21,-27,-90,-38,2
42,14,-2,-1,0,-1,33,-25,2
-37,-29,2,-2,-4,1,55,25,2
35,12,-6,-1,0,-4,-51,24,2
-29,4,-5,0,-2,-6,-64,29,2
-22,15,13,3,1,-5,-57,-14,2
44,16,-22,-7,-2,-18,-77,51,2
-9,8,12,2,-3,-4,37,-6,2
12,-16,-19,5,6,10,53,2,2
22,-1,1,4,7,1,20,-4,2
0,22,0,-4,-4,-8,-4,74,2
-24,2,-4,-2,5,-5,-80,27,2
7,-1,25,2,-13,-16,-66,-17,2
8,10,-21,1,7,11,127,77,2
41,1,2,2,2,12,27,100,2
-86,-22,-17,-17,-23,-31,-85,-124,2
54,52,14,3,5,9,42,84,2
27,-8,7,7,10,9,-1,-57,2
-1,-1,6,6,8,4,-47,21,2
52,-3,8,0,-6,10,20,73,2
25,-36,3,-3,-2,-10,34,75,2
62,67,-5,0,1,2,-30,-53,2
28,38,-5,-3,-3,-1,66,52,2
-10,1,15,7,7,4,2,-7,2
-115,-92,-2,-2,-5,7,44,28,2
36,2,22,6,3,-1,-9,100,2
60,-21,-6,2,4,9,58,80,2
-21,-9,-23,-14,-7,-4,-39,-53,2
31,-2,-33,-1,9,14,99,78,2
-29,-26,-6,0,-1,-3,-87,-42,2
-51,-31,17,-1,-2,-3,7,-6,2
-17,-43,-2,0,0,6,124,75,2
-3,-8,6,1,3,-4,-113,-96,2
-34,-44,-5,-1,0,7,45,-23,2
-30,-24,2,7,5,9,17,-34,2
-13,-5,-13,-14,-11,-26,-29,6,2
8,0,10,2,3,5,-1,-76,2
6,8,12,1,2,5,-27,47,2
-79,-29,-13,-14,-23,-15,3,-1,2
60,11,2,-6,-6,-5,-71,-105,2
-10,1,9,3,1,14,94,44,2
-13,-14,-4,-5,-7,-17,-81,-18,2
27,0,1,8,13,15,30,92,2
-85,-75,-14,-10,-13,-19,42,45,2
40,5,-18,-10,-7,-5,-8,119,2
-62,-22,5,3,4,7,72,-13,2
55,27,-5,1,4,2,-26,-17,2
50,36,2,5,5,0,-28,-54,2
-13,18,9,0,-4,-3,11,-82,2
-52,-27,21,3,-1,1,44,67,2
-18,-8,-25,-3,1,0,-55,-79,2
0,26,5,3,4,11,66,-15,2
-41,2,-8,-7,-6,-15,-13,-48,2
-5,24,-6,-6,-11,-6,-66,-15,2
-3,8,15,7,1,0,-11,-49,2
18,19,2,3,7,8,45,29,2
0,9,6,1,-5,3,22,-50,2
-1,-8,-4,-1,1,3,10,21,2
-35,-20,-8,-9,-12,-13,40,26,2
31,-2,7,7,9,12,74,111,2
-17,-13,2,-4,0,2,42,111,2
3,5,-3,0,0,-7,9,85,2
-12,4,7,7,18,22,86,79,2
42,31,16,7,-1,-1,-81,-88,2
29,15,-13,5,1,5,14,62,2
26,3,-2,5,8,9,43,-26,2
-15,19,-3,0,2,-1,-54,-44,2
-15,3,12,2,3,0,19,45,2
0,5,18,6,9,4,-43,-61,2
30,27,-17,-11,-14,-16,-81,-55,2
-51,-4,-8,-8,-14,-12,67,20,2
-12,21,-9,-9,-8,-20,-109,-30,2
14,2,4,2,4,1,6,95,2
36,-19,4,3,5,8,53,-1,2
-26,-20,13,-3,-5,-9,-63,-128,2
-24,-26,-20,-2,-4,5,-10,-12,2
-25,30,1,-9,-11,-26,-86,-104,2
-65,-50,-14,-3,-3,-3,-17,-79,2
38,-17,8,6,8,18,47,82,2
-4,-29,-9,-9,-9,-5,19,-24,2
-43,-40,-1,-2,-5,6,-30,22,2
-61,-4,-6,-2,0,-12,-25,60,2
48,15,-9,-3,-2,2,7,61,2
-23,13,20,3,6,4,88,41,2
59,23,-11,1,5,2,0,-52,2
7,22,21,2,-3,1,-10,-128,2
11,9,14,3,6,4,-31,-65,2
4,-4,-24,-2,2,2,15,118,2
27,0,42,12,10,15,94,2,2
63,6,-16,-1,-1,-3,-63,-52,2
-1,0,9,0,-4,-13,28,56,2
11,-2,-2,-2,-6,9,-22,14,2
-31,-29,-6,-4,-6,-11,-58,-68,2
88,18,2,5,6,15,127,107,2
-11,-10,4,-1,1,-15,-57,-37,2
-21,-32,0,1,-2,-9,39,28,2
12,-13,7,10,11,29,-19,0,2
-6,36,-4,-12,-20,-26,100,-39,2
13,29,-9,0,7,-7,-83,17,2
52,33,2,-1,2,9,70,50,2
68,19,-13,-2,6,-1,-13,9,2
54,-6,8,7,5,14,1,34,2
15,13,1,-7,-8,-9,21,24,2
-29,-40,5,4,-1,-2,-13,-84,2
22,-1,-11,5,9,11,28,70,2
-38,-17,-12,0,-1,-1,-21,19,2
12,-5,-22,-10,-7,4,4,44,2
0,-21,8,6,4,5,-56,-29,2
-40,-16,-15,-8,-6,-12,12,-5,2
-52,-13,9,0,0,-4,-25,-35,2
-15,-17,0,0,-2,1,-76,-105,2
6,-11,-3,4,7,5,29,19,2
-39,-9,1,-6,-4,-16,1,-17,2
-45,-10,-12,-9,-6,-9,11,-80,2
-50,-39,-3,-3,-11,-8,-55,-27,2
27,-5,-4,-2,4,10,113,85,2
-47,3,7,8,11,-4,-4,63,2
6,-9,4,-6,-10,-9,-103,91,2
-46,-5,-21,-11,-13,-9,38,-50,2
12,18,3,2,-1,-3,-54,-100,2
-39,1,4,-7,-9,-10,-30,0,2
5,8,-10,6,15,8,-28,-18,2
72,54,29,9,2,8,55,26,2
-32,13,-9,-8,-4,-14,-84,-21,2
-41,-14,-13,-8,-1,-7,-71,-91,2
-61,14,-6,-6,-6,-3,53,101,2
7,-25,0,6,5,9,55,76,2
-35,16,11,1,-1,-2,-15,-57,2
-9,11,-9,-1,0,5,30,13,2
22,1,1,2,3,4,-25,-67,2
-47,11,-8,1,5,-3,18,-51,2
39,35,0,3,5,2,-63,-15,2
55,37,3,2,-10,-2,-14,-73,2
-7,-2,2,8,2,4,-83,-68,2
9,32,5,-2,1,2,122,123,2
15,-2,0,-1,-1,-2,15,-63,2
14,0,14,5,2,9,5,33,2
-76,-37,-7,-6,-6,-9,-47,-88,2
33,-7,-2,1,-1,-1,-23,72,2
-83,-35,-13,-7,-6,-4,32,-76,2
-66,-12,-5,-2,5,-8,-26,-50,2
15,-1,7,1,-1,10,54,111,2
-26,-39,-10,-3,1,1,-12,-11,2
30,9,8,-1,-3,1,37,88,2
33,-23,-13,0,-2,4,35,6,2
-3,-4,16,-5,-1,-3,-14,-72,2
-5,-10,7,5,3,-8,-4,-67,2
24,-3,0,-1,0,11,28,78,2
-29,-24,9,5,-2,9,81,85,2
-55,-41,-10,-8,-3,-8,25,96,2
29,-9,11,7,4,11,31,34,2
39,38,5,5,12,-4,-29,127,2
16,-15,-3,-4,-2,3,40,111,2
-18,3,-6,-2,-7,-9,-8,-5,2
24,-7,7,4,8,15,15,43,2
-3,-24,-4,0,-3,-3,-14,60,2
28,1,4,-1,1,2,-5,44,2
32,28,-2,1,3,0,109,91,2
79,24,-1,1,4,-2,-56,-8,2
3,2,-14,-9,-6,-4,-43,-30,2
-35,-13,-17,-10,-13,-19,-19,-62,2
58,-6,15,8,9,19,17,71,2
-54,2,-8,-5,-5,-6,-19,-128,2
-33,-15,-2,0,2,5,-7,-15,2
19,14,1,1,-5,-1,-8,-3,2
24,8,5,-1,-3,5,-14,-39,2
10,-3,-23,-4,-5,-5,-21,44,2
-45,-31,27,5,3,1,-26,-83,2
30,30,3,-1,4,-3,-57,-61,2
-38,-17,-12,-7,-5,-4,-12,-62,2
-80,-45,-7,-9,-14,-16,-53,-57,2
10,-7,-3,4,-6,1,-10,-51,2
-22,-1,-9,-7,-10,-10,18,56,2
30,4,-21,-5,-7,-11,-38,-14,2
-3,31,-6,-3,5,9,24,-75,2
27,-13,2,3,-2,-1,-21,63,2
44,31,8,1,-3,1,16,-70,2
-6,-6,9,7,9,8,31,-2,2
7,-3,2,0,-3,-2,12,55,2
18,0,-8,-6,-3,0,8,-23,2
-50,-13,-12,-9,-9,-14,-57,-98,2
31,5,6,7,9,10,22,94,2
17,-14,0,-1,4,4,85,66,2
-61,-6,2,0,7,-3,-52,-34,2
24,-16,3,-1,-5,0,30,27,2
11,12,7,4,8,5,27,-72,2
-29,-50,4,1,-2,-6,-106,-78,2
-47,16,-18,-7,0,-15,88,33,2
-8,-15,-8,-4,-8,-1,36,-71,2
30,-13,-4,1,4,4,16,-71,2
28,4,26,8,6,15,-10,24,2
31,13,-7,-5,-3,-1,19,26,2
18,-3,12,0,3,-8,-35,127,2
-78,-18,-6,-4,-6,-9,43,47,2
-21,-5,-8,-3,-5,-3,26,-22,2
39,-2,0,-3,-2,-1,-32,-30,2
-16,-7,7,3,7,5,16,-30,2
33,8,17,-1,-7,3,-32,4,2
2,-14,-10,0,-4,-2,-1,85,2
-17,18,16,1,-3,-6,-38,12,2
-4,-6,-21,0,7,9,28,36,2
-10,-11,2,0,-1,-10,-28,42,2
-30,17,-4,1,-4,-5,-72,-63,2
15,-23,-1,-6,-8,5,61,53,2
4,-10,10,8,9,5,-41,-65,2
17,6,-4,-1,-2,3,34,81,2
-7,22,-15,-13,-14,-24,-20,-29,2
28,-2,-2,4,3,2,15,-22,2
-26,3,23,21,27,33,-35,-26,2
-18,21,-19,-15,-12,-18,64,50,2
7,6,5,2,4,8,56,105,2
3,6,-5,0,-3,-4,-43,-37,2
-7,-8,3,2,4,11,120,68,2
44,31,2,1,1,-11,-128,8,2
-14,-4,2,-2,3,5,50,-16,2
-14,-30,1,1,0,0,42,30,2
23,11,-9,-6,-10,-8,5,26,2
-16,-15,0,0,1,4,-15,-60,2
-21,-4,-18,-8,-8,-8,-11,-86,2
1,-27,-5,2,5,5,-3,-25,2
6,-2,-8,-2,-3,-8,-53,-33,2
-58,-9,23,4,-8,1,-38,-41,2
29,12,-21,0,12,-2,52,-22,2
-36,-1,-8,-15,-19,-17,-65,-107,2
-2,-10,-9,-6,-4,-9,-1,122,2
27,11,8,10,10,14,11,-106,2
20,-17,17,5,8,11,35,100,2
7,38,-4,-4,8,-4,13,48,2
-14,23,-4,-6,-11,-7,3,-48,2
64,28,-2,3,7,6,-45,-18,2
42,4,5,3,-3,-4,-36,-3,2
-65,-1,1,8,8,12,94,-37,2
0,-5,2,-6,-5,-7,-70,6,2
-32,-12,-6,0,2,-1,25,-33,2
-6,-3,6,-6,-10,-8,-43,54,2
49,12,-18,1,1,1,20,104,2
-52,-25,-2,1,-1,-10,-15,-117,2
-8,-30,19,3,0,4,25,-13,2
-9,21,-24,-2,0,1,-50,-85,2
6,22,8,5,3,7,-5,9,2
8,23,-2,-1,-3,0,-7,0,2
-13,-5,-17,-6,-2,-7,16,49,2
-60,-23,12,5,1,7,33,22,2
-31,-49,-3,-5,-5,-6,-18,-36,2
93,15,14,5,2,4,36,-9,2
1,12,-19,-10,-10,-16,-52,-65,2
-33,7,10,4,6,3,27,-13,2
69,63,-3,1,1,2,-19,29,2
3,0,10,2,3,9,46,20,2
-15,-30,9,-3,-7,1,43,28,2
95,24,-5,-4,-7,-12,-19,41,2
21,-13,11,1,0,-3,-13,32,2
-61,9,-13,-6,-4,-7,-1,11,2
17,-3,9,6,7,11,5,51,2
-35,-13,0,0,4,6,-5,-42,2
-84,-22,3,1,-5,-1,15,-46,2
14,-16,-7,-9,-9,-12,-67,-19,2
-36,-18,-7,1,0,0,31,66,2
9,-18,11,4,6,-3,-5,13,2
43,-22,12,2,3,11,70,88,2
-11,-10,-19,-9,-11,-10,-60,-57,2
-3,1,-8,-1,-2,-6,-106,-128,2
24,8,2,2,-4,5,56,-43,2
26,-13,9,4,8,-2,-36,31,2
-4,-27,4,2,2,3,-3,-18,2
-20,-13,-5,-7,-5,-2,30,53,2
-4,-14,-4,-2,-2,3,-22,-8,2
-6,-28,-4,3,5,5,-15,-16,2
37,11,4,2,0,3,5,-16,2
-8,-1,-4,-1,-2,-2,10,35,2
1,-26,12,2,2,0,11,5,2
-71,8,-9,-6,-10,-14,-79,-107,2
-4,-8,0,0,-1,2,40,94,2
41,-5,1,2,4,2,6,-21,2
-39,-9,1,-2,-3,-2,-8,-12,2
39,-13,-10,-2,-3,1,31,34,2
17,28,10,3,4,6,94,33,2
-37,-14,-7,-2,-4,-10,-31,-38,2
-2,-9,-3,2,-1,13,53,15,2
-32,-7,-4,-6,-5,-8,40,102,2
20,13,5,7,12,10,7,-12,2
-4,-31,-5,2,13,9,2,27,2
50,8,-1,-8,-19,-13,6,44,2
14,-4,-3,0,-2,5,59,79,2
-19,-10,-1,0,1,0,2,24,2
-9,-12,5,0,1,-3,-70,-61,2
-10,-15,-8,-6,7,-1,-70,48,2
-1,-5,6,6,4,1,66,9,2
48,3,2,-10,-11,-2,21,96,2
27,14,6,2,1,5,15,38,2
-13,-11,-39,-4,1,5,-31,-5,2
-13,5,13,-1,-2,-5,-10,19,2
-48,5,7,-2,1,0,-21,-58,2
23,11,20,6,3,7,28,91,2
-34,21,6,-4,-4,-4,14,-94,2
14,-16,-14,1,3,6,-19,-49,2
24,-9,-10,-3,-5,-5,42,-13,2
23,49,-3,-5,-4,-10,-57,20,2
-38,2,-1,-3,-4,-10,-11,-89,2
9,21,-4,-3,-3,0,-30,-45,2
-6,-3,6,4,11,3,-42,-10,2
15,2,-13,-7,-11,-1,71,-18,2
13,-18,5,4,8,8,25,79,2
5,6,5,-1,-4,-6,-66,-50,2
6,0,-9,-6,-3,-8,-19,-48,2
-17,22,-2,2,2,6,7,32,2
-12,14,4,0,3,-5,-34,22,2
42,30,7,3,-1,9,71,63,2
-2,4,-3,1,-2,-4,-73,118,2
-21,7,0,-1,-7,-12,-38,-34,2
21,13,10,1,1,3,-13,13,2
13,-6,27,10,9,0,-2,76,2
-31,6,-40,-3,4,-4,-2,-25,2
-83,-43,-2,-7,-10,-1,28,-75,2
79,17,6,5,6,-1,1,85,2
-14,-1,3,0,3,4,-5,7,2
-22,-3,7,3,-5,-5,18,-23,2
20,-11,-9,2,5,4,-5,59,2
21,33,14,6,2,4,-20,-18,2
35,-9,-7,-1,2,5,-8,-29,2
-45,-8,0,-6,-5,-4,38,61,2
-2,0,-12,-2,2,6,59,-40,2
-6,-11,12,-1,0,3,-28,-11,2
-3,14,-3,-6,-10,-13,-71,-1,2
2,-3,-8,-4,-3,-4,38,106,2
16,0,-3,1,7,-4,-14,34,2
-25,-13,-6,-6,-14,-2,4,-49,2
-27,-20,-9,-4,0,1,26,-25,2
25,-14,7,-4,4,3,-14,6,2
-18,-13,-11,-10,-7,-14,-23,-86,2
-89,-5,1,-2,-2,-6,28,-16,2
38,3,-23,-4,-1,1,-1,57,2
5,0,5,5,7,3,-29,-71,2
52,-14,9,5,2,8,85,-1,2
23,-13,-10,-8,-10,-13,15,2,2
9,-8,18,6,-1,-5,-19,9,2
11,-21,-24,-6,1,8,0,-21,2
-32,-9,-11,-5,0,5,73,77,2
57,-2,24,6,3,-5,-69,-58,2
-46,-1,-5,-5,-2,-8,20,-34,2
-10,-11,8,4,-1,4,60,45,2
37,9,8,0,-1,1,-19,-9,2
-89,-45,-21,-2,-2,6,-2,-54,2
-18,-9,-6,-12,-8,-13,-13,-36,2
-13,2,24,6,2,2,-4,66,2
-41,1,-17,-5,-5,-5,-50,-42,2
38,-8,3,5,11,14,52,45,2
24,-5,-5,3,1,-2,-74,8,2
0,-4,14,2,-1,5,30,-74,2
30,8,-9,3,12,2,-2,89,2
-2,-22,-8,-4,-6,-2,86,83,2
-16,-4,-5,-4,-3,-5,-40,-85,2
20,20,-1,-1,-4,-3,-26,-29,2
0,-12,11,6,3,3,-13,-23,2
42,8,-5,-2,5,-4,92,24,2
46,-18,-5,2,1,15,17,45,2
3,8,4,-4,-5,-15,48,-11,2
2,-8,-3,-10,-11,-11,-26,-62,2
-22,-13,10,3,3,2,-13,13,2
-21,-14,14,-1,-5,-2,25,22,2
10,-3,-4,6,5,10,-1,8,2
0,24,5,-1,0,-1,-22,-16,2
-59,-28,-13,-9,-8,-3,-27,1,2
41,13,9,5,5,6,34,-20,2
39,4,9,6,2,3,-13,38,2
-22,15,2,2,6,0,15,-65,2
-15,31,-1,-5,-3,-2,-52,-68,2
-48,-6,10,4,0,4,-6,-69,2
16,0,-18,-2,-6,-9,29,-18,2
85,19,7,2,-3,1,-20,89,2
-24,30,11,0,1,0,0,-44,2
-27,-10,1,-8,-4,-2,111,73,2
-32,10,-7,-7,-6,-5,-83,-59,2
-34,-23,3,5,-4,0,26,-10,2
-13,7,-2,4,8,6,-22,40,2
8,-4,-14,-5,-2,-2,-44,24,2
4,-12,3,-6,-6,-3,1,41,2
-45,-22,-4,-1,1,12,63,47,2
15,6,-1,2,2,-3,-85,-10,2
-6,-3,-4,0,-2,-4,33,-82,2
25,-5,-8,1,-1,4,-14,-15,2
71,48,23,-1,-2,-5,-6,27,2
20,-8,23,4,0,-1,24,11,2
-58,-9,-36,-7,-6,-6,-34,3,2
87,21,5,2,1,2,-23,-30,2
-28,-25,-21,-13,-15,-11,-23,-99,2
0,-2,2,0,-2,1,-25,-2,2
13,0,3,-3,-4,5,94,29,2
-65,-15,-7,-5,0,-4,-16,28,2
-3,-14,1,1,1,4,-12,64,2
40,9,-1,10,5,11,79,85,2
-12,-15,-8,-6,-4,-11,13,35,2
-20,1,-4,-5,-3,-10,-52,-20,2
14,10,4,6,6,4,-11,48,2
-9,-22,-20,-9,-10,-13,16,-44,2
36,22,1,4,3,1,-16,83,2
-30,-4,0,-5,-1,-3,27,10,2
3,-6,-8,1,3,-3,-17,18,2
4,8,-5,-3,-6,6,-11,-42,2
-11,-10,-2,-1,-1,-1,-14,14,2
-13,-23,14,3,3,0,11,7,2
-48,-18,-14,-11,-9,-3,-13,-53,2
2,-9,3,3,0,-3,29,50,2
27,-20,7,5,6,5,-43,3,2
54,14,-19,-5,-3,3,80,-39,2
-60,-18,-2,-1,2,-8,-23,72,2
-25,-42,-13,-6,-1,-5,11,-7,2
-41,-22,17,4,0,7,-34,-67,2
-23,-31,2,1,2,1,7,83,2
61,32,10,6,11,16,48,-19,2
13,-10,-10,-7,-9,-18,-60,-6,2
2,15,2,4,7,9,-40,-86,2
-12,-7,5,-1,2,-6,-1,52,2
8,-19,-8,-2,-4,2,26,73,2
-2,-15,-5,-5,-7,-7,-99,28,2
20,3,10,4,7,0,43,74,2
-7,-8,-1,-2,-5,5,5,-36,2
-19,0,5,1,-3,-9,-50,-84,2
-27,10,-11,-2,0,-3,38,-70,2
-18,-5,-7,-2,-7,4,-15,-85,2
6,-9,-2,-3,-3,-6,39,106,2
2,-1,-2,-4,-7,-4,-6,42,2
6,12,4,2,-2,-1,-26,61,2
-9,26,-1,2,2,-6,16,27,2
5,0,7,-3,-5,10,14,-22,2
-1,1,-3,3,4,9,64,38,2
19,25,4,2,6,-4,-8,-17,2
18,1,-3,0,0,-6,-28,-15,2
11,-4,5,6,4,4,16,18,2
-60,4,1,-4,-5,-14,-18,-86,2
24,15,11,0,0,7,71,17,2
16,5,-20,-3,-4,-5,-76,-81,2
-57,15,-8,-4,-4,-4,-27,4,2
28,2,5,3,0,1,-25,47,2
-61,10,12,3,3,4,29,-98,2
-38,1,-9,-4,-5,-6,-39,-56,2
-16,-16,6,5,6,0,-41,-65,2
27,0,-1,-3,-1,0,25,12,2
3,7,-13,-2,1,-1,-12,-6,2
18,4,2,-6,-2,-6,12,104,2
-5,-3,4,4,1,1,29,3,2
5,3,7,4,3,2,16,20,2
9,5,-13,-4,-2,-3,-26,2,2
-15,-18,1,-1,-4,-2,56,5,2
26,21,-1,2,5,-3,-7,67,2
-28,-8,-14,-10,-5,-3,44,-40,2
-18,12,-3,4,3,1,-94,-47,2
-20,-13,-11,0,-5,-7,54,85,2
-14,-14,-13,-7,-10,0,8,-44,2
-50,-44,-7,2,0,-1,-56,-75,2
-20,-40,-4,-6,-3,6,45,81,2
53,-11,2,0,-2,0,24,2,2
-2,-4,4,1,1,-2,-21,-89,2
-30,10,0,-1,-2,-4,-24,-48,2
-12,-47,-3,-3,-1,-1,24,13,2
62,-4,-9,4,-2,8,1,26,2
6,-15,-1,-2,-1,-1,10,52,2
60,4,2,-2,-2,-7,-31,37,2
45,-16,3,4,2,3,51,41,2
-19,-9,-1,-1,2,-3,-74,-49,2
19,5,-1,1,2,1,32,-28,2
24,8,-4,-3,1,4,5,32,2
38,0,8,5,2,2,32,47,2
52,39,14,1,2,2,-19,-53,2
39,20,-8,-6,-15,-12,-93,-31,2
-4,-8,8,0,-15,1,47,14,2
22,-12,-1,-5,-3,-3,12,-19,2
-6,-18,3,1,4,5,36,112,2
-67,-10,-6,-6,0,1,21,40,2
46,0,5,4,-1,-14,-96,-44,2
2,27,-3,-2,-5,-6,33,14,2
-19,-1,-4,-5,-5,-5,-56,-5,2
-51,-47,10,9,12,13,25,2,2
47,25,-4,-3,1,-3,-38,54,2
-24,23,0,7,1,-2,10,-26,2
-21,-15,-4,-11,3,1,3,-9,2
2,-10,-15,-4,-4,-2,16,-8,2
-8,-10,0,1,1,4,-7,-101,2
39,20,5,6,2,1,-31,-52,2
-64,-18,-2,-5,-14,-5,31,28,2
8,6,15,5,8,0,-14,19,2
3,8,-10,-6,-1,0,27,66,2
26,5,3,1,1,5,19,8,2
-12,9,2,-2,-6,-7,-67,21,2
-7,2,-3,-5,-4,-7,14,-19,2
-22,-21,5,4,8,3,6,26,2
16,-10,7,6,15,15,18,15,2
0,19,-4,-7,-10,-8,109,-35,2
-3,-13,-2,2,-6,-2,-6,-40,2
-6,8,2,2,-1,-8,29,33,2
4,11,0,-1,-1,2,-23,-42,2
7,8,1,2,8,6,7,20,2
17,6,10,6,3,4,30,48,2
24,6,25,2,3,5,28,45,2
-5,-3,-7,-15,1,0,5,-6,2
1,8,1,3,4,7,-14,-75,2
-29,15,12,4,-1,-6,1,-31,2
-28,-11,-22,12,2,1,-8,-30,2
-55,6,-8,27,-7,-5,73,-4,2
12,15,11,-8,7,5,-28,14,2
22,8,5,9,8,14,-46,63,2
-24,12,-15,-23,-17,-20,10,-90,2
7,-7,-4,-19,-5,-14,-104,-83,2
-62,-29,-6,11,-5,-17,11,79,2
11,13,10,-7,-8,-9,-114,-34,2
33,32,-33,-2,12,13,58,0,2
-7,-13,22,-4,-8,0,3,42,2
-16,-8,3,3,4,4,1,-80,2
22,31,-9,3,6,5,30,34,2
-51,-8,4,-5,-6,-8,-31,58,2
24,-7,-21,0,-1,-3,-13,13,2
-20,1,26,2,3,3,12,4,2
-8,-12,-17,-7,-6,-4,39,10,2
-23,-32,-10,-4,-6,0,-9,-43,2
-17,5,2,-7,-1,-1,-26,-67,2
-36,-27,-6,-2,-3,0,-3,50,2
49,-4,-16,-2,6,-3,-67,-9,2
-7,0,9,3,5,8,94,-54,2
22,18,-1,1,-3,-4,-38,4,2
-33,-10,-18,-17,-20,-33,47,65,2
35,9,1,-4,-11,0,-18,-104,2
86,18,7,6,6,8,-2,-14,2
-67,-34,15,5,7,11,-3,-38,2
72,3,-4,12,13,19,90,-7,2
-99,-13,-12,-15,-14,-32,11,5,2
-24,-13,2,-6,-5,-4,4,-8,2
-25,-14,2,-5,-8,2,6,23,2
64,16,7,4,7,13,1,55,2
-37,-27,-8,-3,1,2,29,-40,2
-7,-11,8,5,2,4,-41,21,2
5,4,-11,-2,2,-8,10,47,2
42,-4,1,4,5,6,-19,41,2
24,0,5,4,5,6,41,83,2
-5,-3,3,2,0,1,42,34,2
31,-5,-5,-5,-5,-5,-42,111,2
-7,-6,-10,1,5,-5,17,54,2
59,20,14,4,-7,9,14,0,2
-52,-4,-3,-6,-6,-9,-75,-40,2
-53,-4,-11,-9,-11,-17,59,-2,2
-49,-28,-16,-10,-11,-13,-20,-42,2
0,3,1,3,10,7,4,1,2
-32,-35,4,2,-3,-10,3,60,2
23,14,-8,1,4,0,-55,-10,2
14,25,27,5,-2,-3,25,23,2
-18,-48,-20,-7,2,2,21,-81,2
30,14,6,2,3,4,11,-41,2
-21,-6,4,5,4,0,-16,-43,2
0,24,-8,-3,-5,-5,-34,-79,2
4,7,16,10,9,10,-14,-17,2
17,19,-2,2,2,1,-41,7,2
10,7,6,-3,2,-1,17,127,2
11,5,-7,-6,-8,3,54,-13,2
14,-13,14,2,-3,3,38,66,2
-4,16,-5,-1,-1,4,23,-6,2
-24,6,0,-3,-7,-11,-28,-67,2
-19,-62,-24,-3,1,-3,-77,-96,2
64,12,-9,-5,2,-5,30,62,2
-4,-24,11,-6,-7,-2,17,22,2
97,8,11,12,14,23,69,115,2
-42,-21,-4,-12,-9,-12,-24,12,2
-29,-14,-3,2,2,0,29,75,2
-37,-15,-6,-2,-2,-8,-31,-77,2
26,-3,-6,-4,0,2,-8,-18,2
-19,0,7,6,7,5,19,64,2
-45,-8,-14,-7,-12,-5,-8,-8,2
-5,-9,-4,4,1,8,16,10,2
-16,-3,-3,-2,-2,-7,20,-33,2
44,14,9,7,10,11,11,-36,2
-9,24,-4,-9,-14,-12,9,-14,2
22,4,-2,3,4,6,8,10,2
15,-4,-1,-2,-6,-1,-27,-1,2
-18,-6,1,5,8,8,-59,-92,2
58,26,1,5,10,7,26,59,2
-1,19,9,-8,-1,-10,-35,42,2
-9,3,-9,-4,-4,-5,-22,-71,2
49,7,38,5,2,5,64,100,2
37,15,-7,1,7,2,-32,49,2
0,33,-2,5,4,3,8,1,2
24,-12,-3,-1,0,3,-10,-62,2
63,30,24,12,10,17,43,18,2
-61,-12,-7,-4,-5,-16,-67,-72,2
45,2,0,2,10,5,49,16,2
-19,5,-8,-3,-6,-4,4,-16,2
1,-10,0,-2,-5,3,-26,-24,2
-13,-11,7,4,1,-2,18,74,2
-3,6,4,0,1,1,-9,-3,2
-37,-12,-9,-3,-1,-1,38,-29,2
-52,-5,-16,-4,-6,-11,-52,-76,2
20,22,9,7,9,6,-8,29,2
20,6,8,-3,-6,-3,24,97,2
-23,2,1,2,0,-6,3,75,2
-1,20,-15,-11,-7,-6,-19,-34,2
8,7,8,6,7,8,-14,-128,2
-13,16,-6,-4,-7,-4,3,0,2
20,4,10,3,-3,-2,-29,7,2
37,20,-7,-1,4,2,33,-47,2
56,57,-2,-6,-13,3,-24,-23,2
31,9,1,6,8,1,-13,19,2
-14,2,-12,-12,-10,-9,28,-70,2
-51,-35,-3,2,-6,-7,-26,-45,2
-9,-10,5,1,6,6,25,-1,2
20,11,2,0,1,1,2,38,2
-70,-53,9,-3,-9,-7,0,-12,2
-49,-27,-8,-4,4,4,38,64,2
53,17,8,8,7,3,5,29,2
-58,-15,-14,-11,-9,-11,-64,-17,2
70,11,5,8,13,5,9,86,2
-25,-28,-6,-7,-22,-6,26,79,2
15,-18,0,2,6,-7,-7,8,2
26,-1,3,6,3,6,-4,-1,2
22,7,3,1,9,7,5,9,2
-26,-3,-8,3,5,1,-6,-29,2
-20,7,13,-4,-4,-10,-52,18,2
-2,1,-3,4,0,4,26,-81,2
-39,2,-21,-9,-8,-15,-65,-66,2
29,24,0,1,2,0,-7,11,2
-97,-38,-10,-7,-8,-5,5,-17,2
0,4,2,-1,3,3,3,-17,2
40,15,14,7,8,17,50,101,2
33,31,3,5,0,4,0,114,2
-81,-16,6,-12,-14,-18,-42,-107,2
19,-13,-26,0,10,6,-29,-10,2
35,11,-1,-5,-2,6,107,66,2
9,20,-11,-1,-1,-8,-15,-10,2
8,-4,0,7,2,7,67,44,2
23,-6,9,2,-2,-2,-30,-25,2
-34,-1,-1,-1,3,3,11,-43,2
8,-14,7,-1,6,2,3,-65,2
-27,-16,-20,-4,-3,-6,-26,-3,2
-2,-15,-2,-6,-2,-1,19,-56,2
-17,-7,-6,-4,-13,-8,-8,44,2
6,10,15,4,2,2,-36,-51,2
-13,-13,-14,-4,-3,1,74,74,2
-25,-15,15,-1,-4,-7,-35,32,2
6,-20,4,2,-2,-12,-66,-5,2
1,-27,-8,-5,-3,-5,15,6,2
3,-3,-4,-3,-9,2,18,-4,2
55,5,3,-1,-1,-1,-4,0,2
13,-37,-7,-2,2,-1,-4,4,2
20,3,-3,-2,-2,-1,9,8,2
22,-19,0,4,7,6,-49,-25,2
-6,-34,5,1,-7,0,42,-52,2
0,7,-3,-8,-2,-2,28,-25,2
23,-1,1,3,3,0,-24,-43,2
16,2,8,1,4,0,-14,-21,2
-7,-14,-20,-1,7,6,57,33,2
-24,2,-5,0,-8,-1,-65,-49,2
-27,-15,4,0,4,2,-1,10,2
-14,5,1,-7,-7,-12,-29,6,2
-1,9,3,4,7,-4,-26,-56,2
-1,-14,6,3,4,9,44,37,2
23,7,4,5,9,11,-29,-2,2
1,9,-1,-7,-3,10,102,89,2
-9,10,-2,-3,-4,-4,-11,32,2
12,-7,1,3,2,-3,-14,70,2
-20,24,-2,-5,-4,-4,-16,-66,2
-15,-24,-3,3,8,2,-14,11,2
-29,0,-1,-3,-5,1,7,-56,2
41,17,5,0,2,2,15,-3,2
16,-1,-3,-1,-1,-4,12,100,2
-15,-11,-7,1,-4,-8,7,-41,2
-24,4,-17,-8,-9,-2,56,84,2
-7,-13,9,3,2,-2,-55,-21,2
16,-7,-11,-4,-1,-6,-11,29,2
-10,12,-6,-2,-3,3,12,-41,2
-4,-1,15,-2,-4,1,-25,31,2
-17,2,-4,-3,-2,3,26,-65,2
-4,-2,-4,0,0,-9,-27,-43,2
27,0,6,2,-2,-3,-11,-4,2
-3,5,-4,-4,-7,-5,-28,40,2
-12,-10,18,7,7,7,29,23,2
9,3,-10,-4,1,3,42,-30,2
3,5,-11,-6,-4,-5,-25,32,2
11,-1,9,4,2,1,24,51,2
-38,-30,-11,-7,-5,-10,-12,69,2
-2,-3,12,-1,-5,-4,3,-38,2
4,18,0,3,6,1,-10,-34,2
17,22,-1,2,-1,5,48,1,2
2,1,-4,-3,0,-5,-26,5,2
-24,2,-3,-1,4,-2,-45,-60,2
-17,10,0,0,6,5,62,-23,2
-17,-24,-11,-3,-2,-5,-39,8,2
9,6,-1,4,-1,2,-6,28,2
22,15,-6,-11,-8,-3,30,43,2
2,-8,4,3,5,1,-9,-23,2
5,7,10,7,7,2,-12,-65,2
-45,-1,-16,-4,-1,-2,-37,-92,2
-19,-6,-8,-6,-14,-12,35,98,2
-3,-10,-3,-2,-2,-2,-3,-29,2
11,10,-1,-4,-3,-1,-14,3,2
21,-19,-3,-1,-1,3,0,-20,2
-11,-4,1,-1,-1,0,-2,16,2
37,14,3,3,-4,-2,-12,87,2
-42,5,-10,-3,-2,-7,-50,-68,2
16,15,12,3,3,-2,5,18,2
3,11,6,16,26,10,29,30,2
-21,-19,-5,-4,-16,-5,-5,-2,2
43,-2,1,0,-2,-3,-40,30,2
73,49,6,0,0,4,47,-30,2
-19,0,4,1,2,-5,-59,-23,2
-7,-11,-5,3,3,5,-22,-21,2
-55,-8,3,-5,-2,-4,42,13,2
22,-4,0,4,3,1,-7,-35,2
-28,-21,-2,-3,-9,-7,-25,-103,2
16,20,-2,-3,-3,0,-5,0,2
-14,-25,-3,-2,-4,-1,12,72,2
3,-3,0,-2,3,5,10,-2,2
15,-6,17,4,-3,6,1,-65,2
-35,-31,-19,-6,8,-4,1,31,2
-21,-10,-1,5,0,-7,-25,-123,2
-15,-29,-10,-4,-4,-5,1,87,2
32,-8,11,4,0,5,13,67,2
-18,0,0,-6,-3,-4,-14,-32,2
-2,-23,0,3,5,7,37,-50,2
-27,-7,-9,-3,-6,-6,-27,-42,2
4,-7,13,2,-2,5,32,43,2
40,10,-4,-8,-3,-6,-31,-10,2
-12,-26,-5,-3,-4,-5,0,118,2
1,-13,4,-3,-1,3,39,0,2
6,-13,-18,-4,3,-1,-6,-4,2
-21,-14,31,0,-2,4,22,6,2
36,-5,0,5,11,-1,-45,116,2
-53,-23,10,-4,-9,-9,-11,7,2
21,-1,1,-5,-4,-3,5,47,2
-44,-9,-32,-7,4,3,-12,-16,2
3,-5,-1,-2,-2,1,15,-2,2
4,-1,6,2,7,9,57,17,2
-7,7,-12,-2,-2,-3,-25,22,2
6,14,10,1,-6,-5,-23,7,2
34,21,8,2,-1,3,-11,-65,2
-8,5,-17,-5,-5,-6,9,12,2
-26,-7,3,-5,-9,-5,-21,-33,2
23,5,-11,1,2,1,56,43,2
52,22,2,5,4,9,29,22,2
-11,4,-18,-3,-3,-5,-11,76,2
-18,5,-7,-3,-1,-4,-8,13,2
-5,1,10,5,-1,-4,-41,-31,2
-12,-7,-4,-5,-2,2,13,-45,2
-24,25,-1,-2,-2,-7,-46,-99,2
13,-5,3,3,7,4,-14,76,2
-6,-6,-5,-1,0,-2,45,33,2
-18,-6,3,-3,-7,-6,-44,24,2
27,8,6,2,3,8,-4,25,2
2,18,4,2,0,0,2,-3,2
-11,5,-18,0,2,5,39,-32,2
12,-2,17,-2,1,-6,-36,-29,2
-10,12,3,0,-4,3,3,-18,2
-11,-12,-1,1,-5,-1,-6,-61,2
44,7,6,10,6,2,-3,61,2
-29,9,-7,-8,6,2,63,58,2
48,13,-8,-1,-2,1,8,44,2
-19,30,-1,-5,-3,-5,61,81,2
-56,-38,-3,-8,-13,-14,-58,-88,2
112,7,12,7,3,0,-26,90,2
-2,6,14,8,6,1,-10,-61,2
-57,-19,-17,-1,-1,6,29,23,2
-13,10,7,-6,-6,-9,-7,-70,2
-32,-3,0,2,-6,1,21,5,2
-25,-3,0,-2,1,-7,-23,-56,2
15,-2,5,1,1,1,-21,-57,2
8,11,-5,-1,3,5,2,71,2
-24,-5,-6,-2,-3,2,27,-43,2
6,-7,3,-1,1,1,5,31,2
10,-17,-6,-2,-3,-3,12,72,2
7,41,5,-6,-6,0,7,-46,2
-6,3,-9,1,0,4,37,12,2
-3,-15,2,-6,-5,-5,-68,68,2
22,-4,-2,-4,-4,0,3,12,2
14,4,1,5,1,5,21,99,2
-55,-8,-14,-15,-10,-14,-13,-84,2
-37,-1,3,8,13,12,3,80,2
-34,-31,9,2,4,2,-37,-60,2
35,8,6,-4,-16,0,107,72,2
-69,-20,-11,-8,-9,-14,-55,-106,2
20,-3,-9,-3,-5,-9,-35,-75,2
-12,-5,-3,-3,-4,0,-32,-38,2
-22,5,6,4,8,4,-22,-20,2
-39,-42,5,7,13,17,99,46,2
39,-16,-2,-3,-9,-12,-14,-111,2
-16,7,0,4,7,6,1,-6,2
27,-6,24,7,9,3,-26,-36,2
5,-21,-3,4,2,3,-35,-15,2
-31,-31,-16,-12,-13,-16,39,24,2
54,-8,3,1,5,2,-24,28,2
3,-17,-3,2,4,-2,-35,-21,2
-11,-6,10,-8,-10,-6,36,24,2
9,-3,1,11,12,11,-15,-48,2
-28,-30,-4,3,10,-3,45,-52,2
12,-2,0,-6,-6,-11,-18,-7,2
18,-2,-7,0,2,9,18,-23,2
40,6,1,-4,-10,-2,-23,29,2
-27,-29,-3,0,-2,-7,35,-34,2
80,14,0,6,12,14,40,68,2
-12,-1,-7,-1,-2,-12,-68,-50,2
-115,-55,0,-2,-1,-1,25,-16,2
-12,23,3,-7,-8,-6,-46,-35,2
-7,-19,-9,-3,-5,-4,12,-18,2
26,7,-2,-1,-4,2,45,71,2
10,9,18,4,2,2,-28,-10,2
36,20,-29,-6,-4,-2,0,37,2
-23,-3,-9,4,8,7,-27,43,2
-24,-30,6,3,5,-1,18,-15,2
38,40,-8,-6,-15,-9,-25,-42,2
-69,21,-15,-16,-17,-18,87,81,2
-21,15,5,0,0,-1,-39,-25,2
1,-6,2,1,0,-2,-56,10,2
31,-3,3,8,10,11,49,11,2
47,27,17,7,5,9,-23,33,2
-44,-5,-16,-14,-17,-16,4,-35,2
-4,1,-6,-1,-2,-6,-68,69,2
11,6,4,6,14,7,26,36,2
13,11,6,1,-2,5,14,-44,2
-30,-5,-9,-3,3,2,48,14,2
-57,9,-7,-2,-6,-4,-54,55,2
8,-4,-6,-3,0,-6,-2,-18,2
-81,-20,-10,0,-5,-8,-68,-31,2
19,-20,-4,-7,-8,-8,9,-17,2
54,19,7,2,-4,5,-12,-38,2
-1,7,-11,-10,1,-4,44,100,2
-18,-2,-1,3,-3,-5,-82,-117,2
-67,-14,3,-1,-4,-4,-35,-28,2
6,7,0,2,3,-2,67,118,2
-21,21,17,2,3,9,14,-83,2
39,5,-20,-2,4,3,24,58,2
39,34,9,4,4,5,-32,-80,2
-1,-13,0,-1,-3,-3,33,-56,2
-10,-12,3,3,0,0,-20,13,2
21,25,13,0,2,6,78,15,2
-5,-30,-7,0,1,-1,-52,15,2
-1,-6,0,-2,0,1,4,-31,2
-32,-19,0,3,1,3,30,78,2
-37,-17,0,-5,-4,-1,42,-2,2
-14,-35,-4,-2,2,-9,-57,-10,2
46,-7,4,2,4,-5,-63,-21,2
2,-17,-11,1,1,2,68,49,2
33,-1,12,-1,3,0,-98,34,2
-18,20,-23,-8,-7,-4,2,-31,2
37,2,0,-2,-1,-3,73,83,2
-22,2,1,-1,-3,-1,-42,-27,2
74,30,-5,0,4,1,18,7,2
66,1,6,8,10,14,-12,42,2
24,-1,12,2,-1,0,10,-83,2
5,-15,-11,-6,-2,-7,-33,41,2
-66,-28,4,-4,-10,-3,36,-47,2
5,22,6,3,1,4,33,22,2
-18,5,-9,1,2,4,11,-14,2
48,-7,29,11,15,16,45,98,2
-29,-11,-33,-13,-9,-17,-91,-106,2
-17,12,11,-4,-10,-13,-14,46,2
-32,-8,-12,-4,-1,-1,-9,-28,2
-2,-3,-3,-1,-4,-2,-17,-70,2
71,-2,15,6,5,11,93,41,2
-56,-12,0,-1,-1,-2,-7,41,2
53,55,4,4,9,-6,-117,-96,2
-2,0,-14,-8,-12,-14,-39,86,2
27,-13,4,3,1,8,22,32,2
7,-19,2,3,5,12,77,-84,2
5,0,-3,-3,-3,0,36,11,2
-7,-13,-9,-3,1,-4,-70,-66,2
-4,-2,1,-3,-6,-7,-35,-80,2
6,4,7,5,7,7,26,44,2
-16,-16,-5,-5,-4,-2,-14,-93,2
24,2,4,0,-2,-1,14,-27,2
2,-12,5,3,5,5,4,59,2
3,-16,8,1,2,2,-36,-88,2
-30,-1,0,-3,-8,-2,16,-8,2
-6,4,-6,-2,-4,-3,1,-26,2
23,3,5,9,19,8,-8,3,2
-20,-10,5,-3,-2,-5,31,107,2
23,10,-14,-4,-3,-2,-17,-12,2
-49,20,-2,-3,-1,2,47,85,2
34,13,1,0,1,6,7,-49,2
-24,14,-7,-2,0,-8,-41,-83,2
18,8,4,-2,-2,0,40,70,2
13,0,1,1,5,8,45,25,2
-17,16,-6,-2,-6,-8,1,39,2
-2,17,-3,-3,-1,1,-18,-63,2
-5,-5,2,0,-5,4,32,69,2
6,0,-1,1,2,-1,-6,38,2
4,7,7,4,0,2,30,127,2
18,-26,5,6,8,13,61,63,2
-12,-3,-5,-5,-6,-13,-74,59,2
24,15,0,2,1,4,32,4,2
6,2,13,0,-2,-1,-8,14,2
40,-4,9,-2,-4,-1,3,-23,2
-35,13,-11,3,4,1,14,55,2
19,-2,5,5,2,-4,-13,-22,2
-21,-24,-3,3,4,4,-80,-5,2
5,11,-1,-7,-10,-4,80,-14,2
-16,-2,5,2,1,-7,-45,-67,2
10,4,-8,-4,-12,-7,-21,-72,2
-29,-12,4,0,5,4,17,24,2
29,3,-5,1,3,1,-13,24,2
39,29,0,4,7,8,38,63,2
-30,-9,-2,0,-1,3,1,25,2
-15,-10,-2,4,3,3,5,26,2
-2,27,-9,-12,-19,-10,60,115,2
9,-5,0,0,-1,0,-35,46,2
4,-4,9,1,4,4,15,-53,2
32,13,3,0,-2,2,42,26,2
59,34,-5,5,6,0,-36,-12,2
-8,-25,11,4,6,5,24,-46,2
-5,-1,-2,-2,1,8,42,2,2
-5,-18,-10,-6,-8,-14,-58,-128,2
-34,-4,6,5,4,-11,-59,10,2
-3,12,-13,-12,-9,-2,-12,-106,2
-42,-22,-4,-1,-4,-5,-17,-13,2
8,-21,-39,-8,-2,1,35,25,2
-9,-6,8,2,5,2,-16,-40,2
-29,-17,13,6,5,3,-10,-4,2
27,-7,-3,3,-2,1,9,89,2
12,25,16,2,5,6,6,-14,2
-38,-35,-20,-12,-16,-7,-2,-35,2
-15,-19,-1,1,-1,1,12,24,2
-5,-7,0,-2,0,-2,-18,-84,2
-3,8,1,-2,-4,-4,17,8,2
9,0,3,6,12,-2,-48,84,2
21,-1,6,1,0,4,-13,2,2
5,-2,1,-3,0,-6,-37,-51,2
30,-5,2,2,0,1,18,46,2
-39,-3,0,-4,-2,-7,-35,3,2
-24,-19,-12,-2,0,4,33,14,2
27,-7,-1,-2,-1,-4,-1,98,2
-9,-7,2,-2,0,-2,-1,-41,2
21,-13,0,2,2,5,18,12,2
31,3,23,2,-1,-1,-6,41,2
-28,-16,-17,-6,-1,3,32,-50,2
-14,5,-1,0,-4,-7,-15,69,2
-27,-65,-13,1,2,5,-39,-69,2
27,4,-13,-10,-8,-8,76,64,2
-16,0,-12,-3,-2,-4,-21,-50,2
2,-8,9,4,0,-1,-34,45,2
-1,-5,-13,-5,6,0,41,-86,2
13,-35,15,11,3,5,-10,-22,2
-8,-8,5,-3,6,3,10,-55,2
-6,-4,-16,-9,-3,-4,33,28,2
27,-9,18,8,14,10,16,64,2
-36,-14,-10,-3,-1,-7,-23,-45,2
13,12,8,1,-2,-6,-35,59,2
-23,0,6,3,6,6,-1,-88,2
12,1,-5,0,0,5,23,-4,2
42,24,5,-2,1,0,58,13,2
-30,0,2,3,-3,-6,-91,23,2
12,1,18,2,0,1,14,-89,2
-46,-5,-9,-4,-9,-8,-49,45,2
3,2,-6,-3,-2,1,0,-7,2
-87,-32,-3,-6,-5,-3,-1,-14,2
28,-8,4,-2,-1,-1,-14,-35,2
-3,46,3,-3,-5,1,39,39,2
-5,-5,-1,2,3,6,-13,-10,2
29,14,-4,-2,-5,-6,16,57,2
-14,5,5,5,6,-1,-23,8,2
-63,-14,-17,-7,-14,-23,-37,-80,2
-12,-21,-12,-15,-13,-14,-1,124,2
75,27,4,-1,3,6,-6,70,2
-77,-24,-37,-12,-14,-16,-47,-66,2
33,16,9,4,1,4,23,108,2
-25,12,3,7,8,6,-17,-62,2
-15,-18,1,-4,-13,-4,27,-14,2
51,16,1,-1,0,-3,-63,-41,2
20,43,21,3,4,6,85,14,2
-14,22,-36,-3,-5,-14,-116,-22,2
31,25,22,8,8,10,48,29,2
-57,-18,-16,-2,2,5,37,0,2
-10,-19,-11,-3,-8,-2,-20,48,2
5,-4,13,-1,4,8,97,51,2
-16,16,-10,-4,-4,-8,-35,-72,2
35,4,13,2,2,2,11,63,2
-5,-4,6,3,6,6,-23,20,2
15,16,8,5,5,6,48,-96,2
-21,-16,-5,-2,1,-5,-22,69,2
10,10,5,-8,-15,-6,38,32,2
55,-3,10,4,4,6,-5,6,2
-21,-5,5,-4,-8,-8,-67,-88,2
13,2,-19,-8,-2,1,74,5,2
24,-12,0,2,7,-2,23,119,2
37,26,13,-11,-15,1,-8,40,2
4,-14,-3,2,1,1,-14,-15,2
19,8,17,8,7,10,0,-55,2
-36,13,-6,-8,-4,-11,-13,-97,2
-2,-19,-9,-5,-3,-6,-3,24,2
-3,-6,6,0,3,4,-5,-14,2
-21,-1,-5,-1,-2,-10,-8,-12,2
20,16,6,2,3,13,27,40,2
-68,-42,-2,-1,1,-6,-24,-65,2
-4,0,-4,-4,-6,0,36,56,2
-54,-28,-4,2,-2,-10,-106,-75,2
16,-10,9,4,0,8,27,-54,2
-1,14,-13,-6,-7,-16,-43,6,2
-11,-10,-3,0,2,4,17,48,2
46,-2,2,2,3,9,61,-32,2
16,-10,-2,-3,-4,-3,-31,89,2
12,-16,1,6,9,13,49,40,2
-57,-23,-8,-7,-10,-15,-69,-60,2
24,20,7,0,-3,-2,73,75,2
-13,-1,-9,2,0,-4,-5,63,2
22,-1,-2,3,10,4,13,-40,2
14,39,6,3,3,6,6,-31,2
-12,-14,-4,-6,-3,-7,-8,94,2
18,19,18,6,-4,1,11,7,2
-45,-9,-29,1,2,-6,-46,-103,2
19,-20,-2,-11,-11,0,43,66,2
37,-9,4,8,12,11,46,51,2
-75,-7,-1,-5,-8,-3,-48,-19,2
32,-17,9,3,2,4,13,38,2
18,-3,7,4,9,7,50,4,2
6,5,-14,-7,-5,-14,-38,41,2
-4,-22,-2,-2,2,2,0,8,2
23,9,4,-4,-8,-11,-56,-26,2
-5,7,-1,1,0,4,32,-28,2
3,1,9,-1,-1,-7,-79,-10,2
-14,-12,-13,-5,-3,2,112,-50,2
10,-1,2,-1,-2,-3,-94,-90,2
42,0,-3,2,0,-4,-3,16,2
-2,-5,4,-3,-3,5,46,-28,2
9,-18,-6,-2,0,-4,-69,12,2
-16,-2,-5,-3,5,7,58,12,2
-28,-9,3,13,11,-2,-31,31,2
-17,-8,-9,-18,-11,4,9,-58,2
34,-1,2,-1,-5,-2,-7,2,2
8,15,8,-2,-1,5,46,44,2
30,-17,0,3,3,-2,-2,67,2
5,10,-2,7,5,5,-12,3,2
-9,9,-1,-1,3,3,28,1,2
11,0,9,5,1,0,-25,50,2
-9,-12,-21,-9,-6,-11,-26,-2,2
-15,-5,-5,0,-3,-5,28,-23,2
12,13,4,-1,0,0,27,-3,2
-1,0,-3,2,-2,1,29,-4,2
-10,7,5,-2,-2,-4,-77,-5,2
8,-10,5,7,3,7,15,86,2
-15,-4,-5,0,-2,-9,-43,23,2
-11,-4,-2,-2,4,-1,14,-44,2
6,9,5,-3,-3,2,28,13,2
-29,29,-10,-12,-14,-13,-20,-25,2
18,8,6,4,0,4,-16,29,2
-8,5,-2,2,-3,4,17,-6,2
-4,-13,17,-3,-6,0,-6,-38,2
11,18,-33,-5,1,1,14,-42,2
-3,-20,5,2,2,2,16,-12,2
-14,18,1,-3,4,0,23,48,2
-33,-6,-18,-4,-8,-13,-44,-37,2
38,-6,8,2,2,-5,2,1,2
13,5,3,0,-1,-3,8,-6,2
9,-6,-8,-1,-2,2,31,83,2
14,-4,9,7,10,14,35,35,2
-26,15,-1,0,-1,-7,-28,-93,2
7,3,9,-1,-2,-5,-43,-78,2
26,-7,-14,-2,-3,0,12,-45,2
-47,16,-9,-3,0,-4,-5,47,2
-33,-25,14,1,0,1,-43,-25,2
-17,-14,2,2,4,4,32,-7,2
-5,0,-1,-2,-8,-3,-6,-52,2
2,2,-5,-4,-6,-6,45,35,2
0,-4,0,4,4,2,-48,0,2
-18,-1,-6,-1,-1,-1,15,19,2
7,-3,7,3,5,3,-23,-10,2
-1,9,-12,-10,-9,-4,-1,-44,2
5,-10,4,-1,-8,4,43,-29,2
5,12,-4,2,2,-4,-67,-38,2
-15,3,-4,-4,-4,-10,-17,-17,2
16,-3,13,4,1,-2,3,5,2
-6,1,-13,0,3,1,71,6,2
-4,16,-8,-5,-4,-6,-37,44,2
-8,0,3,0,0,3,-3,102,2
-28,-23,-5,-4,-5,-2,53,-2,2
57,25,9,3,5,-1,38,28,2
38,-9,1,-3,-2,2,27,18,2
-5,2,-12,-5,-4,-5,-6,-33,2
13,28,-9,2,3,5,-4,27,2
-17,-7,2,0,0,0,-52,-5,2
0,-18,-1,-2,1,1,24,89,2
24,9,13,4,2,2,55,13,2
14,12,-6,-5,-1,-5,-74,-73,2
-8,-9,5,6,3,3,8,16,2
4,2,1,1,0,-3,-15,9,2
-16,-14,-21,-7,-2,-2,-59,-42,2
-29,-12,6,-1,2,1,35,-12,2
4,4,-8,-6,-11,-9,-72,43,2
-8,-10,-7,-2,0,2,-21,-75,2
-18,-8,41,9,3,6,36,-43,2
47,13,-17,5,3,0,-42,-36,2
-50,-22,-8,-11,-4,-9,9,31,2
8,0,3,3,-4,8,14,-22,2
-5,-14,-7,-3,-5,-6,-7,-19,2
-10,-9,5,3,4,4,1,8,2
-47,-22,3,4,6,0,-1,-22,2
16,-3,0,0,2,1,-15,-21,2
0,-6,-10,-5,-4,-2,85,69,2
-5,-3,9,0,-3,-5,-66,8,2
47,-3,-1,1,1,4,9,-14,2
-8,8,-2,-3,0,-1,-3,40,2
45,-5,19,10,10,16,58,38,2
-60,-19,-27,-13,-12,-29,2,48,2
11,-13,-24,-10,-8,-3,24,46,2
12,1,-2,3,3,1,8,-36,2
-10,3,5,3,4,3,0,-19,2
31,-21,10,5,-4,14,12,89,2
-21,4,26,9,8,2,-16,-45,2
-27,9,-28,-11,-5,-6,78,-35,2
-58,1,-32,-13,-16,-16,-81,25,2
24,8,36,7,6,8,31,-73,2
36,14,13,15,16,28,59,-98,2
88,36,1,-8,-16,-26,-70,14,2
-24,7,-6,-2,-1,-10,-50,-83,2
15,5,0,3,8,9,25,-26,2
29,2,2,0,0,2,19,43,2
-30,-7,13,7,7,10,27,8,2
7,3,-25,-3,-3,-4,-16,-19,2
12,17,-1,-3,-2,-4,-11,10,2
4,-6,5,1,1,3,7,29,2
-25,8,-2,-1,-1,-2,12,23,2
21,11,9,6,6,4,-64,35,2
-29,-2,-6,-7,-6,-3,89,50,2
6,-5,10,5,2,4,-32,32,2
-32,-13,-10,-5,-3,-2,58,58,2
78,11,15,3,0,7,-47,-52,2
-7,-12,4,-4,-6,-8,-21,57,2
-46,-5,-7,-9,-3,-1,5,33,2
82,-8,-13,-1,-3,-3,8,-53,2
-17,-21,4,-1,-1,1,52,-67,2
21,17,4,2,3,-4,-9,-36,2
-7,2,-7,-5,-7,-12,-51,-115,2
-24,-24,12,3,2,15,42,44,2
-12,-11,1,-6,-8,-11,-30,32,2
3,1,-3,2,1,-3,-81,-48,2
-4,-1,-6,-1,0,0,63,44,2
-14,-28,-5,3,5,3,1,57,2
38,-10,-1,1,1,7,41,73,2
-55,5,-15,-10,-15,-22,-87,19,2
18,-1,11,2,2,-1,27,-36,2
-18,4,-3,1,1,1,7,43,2
-24,6,-8,-1,1,-4,0,14,2
13,-10,6,4,5,11,70,11,2
-12,-3,-3,1,1,-5,-32,36,2
-35,30,-4,-4,-8,-5,-25,-60,2
23,-10,12,17,16,8,14,7,2
-6,13,1,-2,5,12,20,-88,2
-7,-4,3,1,-3,-5,12,24,2
-38,7,-4,-7,-9,-8,-24,-49,2
-6,10,2,-1,-2,-11,-23,12,2
-7,-5,9,-2,-12,6,0,-49,2
62,-4,-14,-4,-2,-3,23,52,2
-4,10,10,4,9,3,-4,14,2
-19,6,-3,-6,-7,-3,10,-26,2
5,-12,0,4,3,-1,-14,-70,2
18,27,1,0,-4,5,41,-55,2
34,22,1,-6,-7,-18,-72,110,2
-3,5,-9,-10,-8,-9,-32,67,2
16,-8,-7,3,8,8,27,46,2
9,-2,3,7,6,6,-14,27,2
-67,-46,21,1,4,2,-5,-128,2
-21,-8,-16,2,-1,-1,12,-37,2
-50,-2,-11,-7,-2,-7,18,54,2
-25,-30,-2,-4,-5,2,3,49,2
29,26,12,11,17,2,-20,-15,2
-4,-6,-8,-15,-18,-16,-66,-57,2
11,-9,-10,1,2,6,31,42,2
9,-13,0,0,5,0,8,20,2
17,-21,-4,2,-1,1,11,-54,2
18,-12,5,0,1,7,48,-14,2
41,-2,16,2,3,6,68,106,2
-40,-12,-28,-9,-6,-16,-103,15,2
17,-7,4,2,-2,3,17,36,2
-11,1,-2,0,2,1,4,-27,2
23,-2,10,4,3,6,21,-23,2
-6,-2,5,0,-2,-2,-5,10,2
12,-32,-7,-2,4,3,17,5,2
21,-15,1,3,-3,0,15,51,2
-40,13,-10,-6,-6,-17,-74,0,2
-51,7,4,-3,-4,-4,-6,-128,2
12,-9,-5,-3,1,-1,9,27,2
8,1,15,5,1,7,13,15,2
19,-16,-2,1,4,5,-8,-109,2
35,24,-18,-10,-10,-11,65,62,2
-25,-16,2,-4,-6,-4,-34,35,2
-14,11,10,3,7,11,31,-42,2
-10,-8,7,2,-5,-5,-29,-21,2
-12,17,1,0,3,3,-24,-97,2
-9,-11,-1,3,4,-2,-14,3,2
-12,3,-1,-1,-6,-4,2,47,2
-39,-1,2,2,3,3,-39,-20,2
19,-15,9,3,1,7,44,30,2
-11,52,-4,-12,-8,-8,28,-77,2
-5,25,-8,-10,-17,-18,-33,11,2
12,-13,6,-5,-4,-3,26,68,2
-1,-13,1,4,4,3,-1,-15,2
26,15,-1,6,4,9,-4,-16,2
10,-7,2,3,7,5,35,42,2
5,8,-4,-1,-1,-4,16,23,2
0,18,9,-1,-2,-4,-49,-61,2
-5,-7,-5,-5,-8,-4,9,-8,2
-9,-1,-1,-1,3,2,5,-15,2
-9,2,-7,-1,0,-3,-12,18,2
11,1,4,2,4,4,-46,7,2
-9,15,1,-1,-6,2,50,64,2
-3,-14,-8,-2,4,6,63,-16,2
-1,12,0,-2,-5,-18,-104,-84,2
-40,1,-9,-8,-12,-12,115,18,2
-26,-13,-2,1,-3,-3,-42,-9,2
7,-3,1,1,5,2,2,-25,2
28,-10,3,7,5,12,17,2,2
-2,-16,1,0,4,-1,5,30,2
28,10,18,4,-1,5,-31,24,2
-51,0,-40,-12,-4,-11,-24,20,2
10,-6,9,-2,-2,1,35,22,2
14,-16,6,-1,4,2,-32,51,2
-4,-5,5,0,3,0,10,-18,2
31,-6,-4,0,1,3,6,59,2
-10,4,-9,-4,-1,2,24,-32,2
17,-6,2,4,5,2,1,23,2
4,-21,3,1,-1,-1,39,10,2
-35,-9,-2,-3,-4,0,-3,-20,2
11,-32,-3,3,5,5,-16,-93,2
-36,0,-7,-6,-10,-9,-14,4,2
1,-6,-9,0,1,4,15,50,2
-7,7,16,2,0,-10,-45,-94,2
12,4,-29,-2,3,5,50,3,2
-68,-9,2,-4,-7,-5,0,26,2
-11,-6,-11,-6,-5,-6,21,-9,2
10,-1,7,3,2,1,-48,-12,2
29,12,11,2,1,2,23,127,2
39,9,-4,1,2,2,-6,-57,2
6,-10,-8,-2,4,-6,52,2,2
12,3,11,3,2,3,3,14,2
-12,-12,3,1,-4,2,0,53,2
-5,-36,-1,3,5,4,-16,3,2
-27,-16,1,-1,2,-5,62,-11,2
17,-2,-16,-10,-8,-6,-68,-116,2
4,-5,-5,-4,-4,-4,74,77,2
19,-1,-1,-3,-6,-5,-60,19,2
10,-20,-4,3,5,7,22,41,2
-24,-15,10,6,4,4,59,81,2
-37,-17,7,-4,-7,-9,-65,-107,2
12,-8,-3,-1,-3,1,7,13,2
3,-2,2,-2,-4,-3,-22,35,2
12,-6,11,0,5,-1,-15,-6,2
4,14,-11,-6,-10,-1,-16,-16,2
-18,-14,5,4,3,-3,4,-28,2
4,-1,4,-1,-2,2,-52,-73,2
6,6,-7,2,4,2,53,-24,2
6,19,6,2,4,-1,-26,14,2
4,2,-10,-1,0,-2,-11,-44,2
9,3,-3,2,0,2,39,45,2
-12,5,0,-5,-6,-4,-23,40,2
-18,-14,6,2,5,4,7,-10,2
-4,13,-1,-3,-1,0,20,-19,2
1,11,1,0,5,5,-23,5,2
28,3,6,5,6,7,81,87,2
-18,19,-2,-4,-5,-17,-80,-75,2
10,13,-6,-3,-3,0,31,127,2
-2,4,-4,-1,-2,2,9,-10,2
5,9,7,4,2,2,-46,33,2
7,10,-6,-2,0,3,63,12,2
9,-7,0,3,4,5,-15,-36,2
-3,13,9,-3,-7,-11,-82,-65,2
1,0,-14,-3,-5,2,59,3,2
32,12,-4,2,2,0,7,-32,2
-11,-4,0,0,10,-3,7,43,2
-32,-2,-3,-4,-11,-5,-35,-44,2
1,-10,5,1,2,6,15,18,2
-4,-5,4,1,2,2,17,31,2
-9,11,-13,0,-3,1,21,12,2
54,-14,1,2,1,-1,-32,-52,2
-48,-7,14,-5,-7,-13,-8,72,2
-6,-8,-16,-5,-1,-1,-10,15,2
9,-1,21,0,-5,4,-6,5,2
-3,-4,-4,0,4,-2,45,45,2
29,1,-3,1,-4,1,-12,-5,2
-15,-8,2,-1,-1,-1,-14,-37,2
23,7,3,4,4,6,15,10,2
-44,-22,-14,-15,-22,-1,-26,17,2
21,-6,-8,-4,-3,-8,-41,-88,2
46,7,4,2,0,2,47,69,2
2,4,-2,-1,-3,-1,2,29,2
-9,-6,-3,1,3,-4,5,3,2
-10,-10,0,1,3,0,0,-29,2
7,-1,-3,1,1,7,34,14,2
-14,-10,-3,0,-2,-5,-84,-79,2
32,-4,3,3,4,-1,-1,-11,2
-5,11,-1,-1,-2,0,2,12,2
-19,-40,1,1,2,1,6,-5,2
24,3,1,-2,-1,1,22,63,2
-6,-12,3,2,6,5,14,-11,2
0,-6,-3,1,-1,-3,-61,53,2
28,-4,3,2,3,8,3,16,2
-19,-2,2,-3,-3,-5,31,-84,2
10,1,-26,-5,0,-7,-45,71,2
39,-1,1,0,-5,2,26,73,2
14,12,26,12,9,4,-2,32,2
7,3,-11,4,-2,9,-9,-14,2
-42,1,6,0,0,-3,34,31,2
-16,-4,-8,-3,1,-3,-18,-24,2
-7,8,1,-3,-5,-7,-14,79,2
6,-11,6,0,-1,3,17,-46,2
0,10,3,-1,2,4,15,-2,2
-9,11,3,1,-6,7,1,-53,2
-15,6,-3,-5,-7,-8,-27,-37,2
18,-4,-12,-2,5,2,59,93,2
21,-2,9,-4,-6,-8,-8,-72,2
-10,-14,-2,-1,0,-7,-39,-39,2
-20,-15,-8,-3,-6,2,2,-69,2
11,-8,-6,-1,1,0,-21,-28,2
-2,-17,15,6,5,8,23,21,2
-19,-2,-7,-3,-4,-3,45,-5,2
-14,-9,-11,-6,-5,-9,-28,-50,2
6,-5,7,2,2,3,-24,-82,2
16,-2,-5,3,5,-2,-37,13,2
-27,-7,6,1,2,0,11,-68,2
6,-7,-3,1,-1,1,10,127,2
-29,-25,-1,-5,-3,-4,-19,-24,2
12,-12,-2,-3,5,8,17,13,2
6,-6,-1,-3,0,-4,-48,53,2
7,1,7,-1,3,-3,14,22,2
-13,-11,-13,-4,-2,-11,-8,-52,2
-7,-10,-19,2,-11,4,32,67,2
20,3,10,0,4,6,-17,-63,2
-7,3,-33,-9,-6,3,34,-28,2
-19,-10,-8,-4,-6,-8,-50,49,2
12,11,23,7,4,-2,0,52,2
5,-27,-3,2,3,-2,27,9,2
18,11,12,5,1,1,-29,37,2
-9,24,-1,-1,-1,3,46,21,2
-7,-1,-13,-5,-7,-10,-34,1,2
-9,-6,5,6,5,8,58,-7,2
15,11,2,0,7,0,-52,-52,2
-10,7,-1,-4,-6,-10,-4,-4,2
-15,8,3,0,3,1,-7,-20,2
0,7,0,1,-2,-1,33,-60,2
1,-8,-1,4,3,6,20,11,2
4,16,8,0,-3,-7,-83,-51,2
-22,4,-6,-5,-7,-12,-3,-64,2
-3,-11,-9,0,4,0,10,45,2
21,15,18,0,-1,3,-11,10,2
-42,-1,-7,-5,-3,1,13,53,2
-51,-29,1,2,1,1,26,18,2
-31,-10,14,0,-3,0,-58,-11,2
-32,12,-29,-12,-12,-10,23,-14,2
34,11,21,7,0,6,17,49,2
-9,-10,-2,-11,2,6,10,8,2
-9,-1,-1,0,-3,-2,7,-22,2
-5,-12,7,3,-1,-1,-9,-15,2
20,-13,-1,2,3,5,27,3,2
45,34,0,5,5,4,53,31,2
20,10,0,-5,-3,-10,-57,-35,2
-22,8,5,-1,-3,-1,-12,-101,2
5,2,-5,-4,1,-3,17,9,2
1,-17,10,7,4,10,-3,-9,2
38,5,-11,-6,-2,-8,-44,47,2
-7,-8,1,0,3,-3,26,-19,2
-9,2,0,2,-8,-2,-40,-44,2
-2,0,-11,-3,-1,-6,-44,-54,2
-8,20,8,4,0,4,-16,6,2
-18,-17,-32,-11,-7,-13,19,30,2
5,-5,18,6,9,1,25,53,2
28,11,12,3,1,19,10,-55,2
-30,2,-27,-13,-12,-13,32,74,2
-8,19,4,4,2,-9,-73,-74,2
-28,-9,0,2,0,-1,37,7,2
-3,-14,-5,1,0,1,76,107,2
4,-7,4,-1,1,-4,5,17,2
-46,-30,8,-1,-3,7,18,-31,2
19,-20,-12,-7,-7,-8,-40,-56,2
3,-19,-3,-1,-2,-5,-40,-8,2
14,1,6,6,5,10,25,-13,2
11,4,5,-2,-1,-3,-5,11,2
-2,-10,-24,-3,0,2,15,-15,2
16,8,14,0,-1,-4,-5,-17,2
36,15,-1,1,1,5,3,8,2
33,18,7,5,8,10,54,-19,2
15,11,11,4,6,5,49,91,2
-4,-4,-3,-5,0,-6,-46,12,2
27,-1,-9,-6,-5,-4,53,-2,2
23,-2,3,5,3,3,14,30,2
0,26,8,-4,-4,7,47,12,2
12,2,-4,2,1,-1,-12,-30,2
9,-2,4,6,1,-3,-49,7,2
-18,-25,-5,1,3,-3,-2,127,2
11,0,-1,-1,-4,-2,0,-14,2
-5,14,-11,-11,-8,-12,-17,10,2
-2,-18,-6,-4,2,0,2,-67,2
14,-8,10,6,0,2,-20,-27,2
1,5,0,1,2,6,18,9,2
39,2,-7,-4,-7,-10,-19,54,2
17,-7,1,1,0,5,73,-14,2
14,4,-1,-3,2,-3,-41,-7,2
35,17,8,2,-1,-3,-31,-70,2
-72,-7,-9,-1,-5,2,5,-103,2
-15,5,2,-1,0,0,-4,35,2
26,-8,4,2,-2,5,14,-34,2
-31,-8,-12,-4,-1,-4,-13,12,2
-7,-11,7,5,10,7,75,111,2
-1,-5,-1,5,5,-7,-42,-60,2
-56,5,0,-9,-13,-7,-48,-30,2
-26,16,3,-5,-4,-2,-46,9,2
3,-24,1,2,2,-1,-17,5,2
2,9,-2,-1,1,0,-3,-37,2
-4,3,-6,-2,2,4,32,-53,2
16,-20,-4,-3,-4,-5,18,42,2
-27,15,-7,-5,-1,-4,-65,-38,2
-7,1,3,-1,-3,3,33,-60,2
22,3,-3,-3,-1,-1,18,23,2
9,19,2,1,3,3,-14,16,2
-56,-17,-8,-7,-6,-7,0,-57,2
-30,-16,-5,-8,-18,-1,28,36,2
9,7,-4,-1,1,1,-63,-22,2
4,-19,0,0,-2,-2,18,-55,2
40,15,3,5,4,7,6,0,2
21,-4,1,2,7,-1,-18,75,2
11,-4,3,4,4,6,105,63,2
-1,-30,-7,-7,-7,-14,-107,23,2
5,-3,2,1,-2,0,38,85,2
-42,-14,-5,2,2,0,-12,-60,2
15,3,15,0,3,5,-1,-1,2
1,-2,-15,1,5,1,110,77,2
16,0,-13,-1,-1,-3,-123,-102,2
6,-4,3,5,6,2,28,37,2
-6,6,-5,0,-3,-5,-12,19,2
-26,1,11,-2,-8,5,16,-69,2
4,0,3,-4,-3,-1,18,-69,2
-14,2,-4,0,-1,2,31,113,2
24,-9,6,3,-1,-6,-44,26,2
-25,-6,5,0,6,7,19,22,2
-13,6,-2,-2,-4,-4,-9,-99,2
-18,2,5,-3,0,2,-29,-21,2
-49,4,-10,-7,-8,-13,-56,-40,2
47,13,9,8,6,11,81,58,2
20,18,-2,-1,2,-3,12,78,2
1,-5,-7,-7,-8,-5,-61,70,2
-28,7,-5,0,-3,-1,91,59,2
0,-11,-8,0,-2,-8,-22,49,2
-14,-5,5,-1,3,2,27,25,2
19,-5,2,-1,1,-1,-38,-39,2
33,-3,3,3,11,12,3,18,2
-30,16,-4,-2,-1,-7,-16,-114,2
-2,5,0,1,-3,-4,3,-2,2
6,19,1,-2,1,1,10,14,2
12,-3,-5,-2,2,1,0,-15,2
-18,5,9,4,1,5,-24,-40,2
19,-21,-15,-3,-3,-4,4,56,2
-74,-22,-1,-7,-10,-15,-8,-98,2
-16,-1,-28,-9,-14,-7,-26,55,2
-1,-3,-1,-4,-2,-6,-17,-6,2
-20,15,4,5,3,10,38,49,2
-44,-5,-3,-8,-14,-17,-54,-98,2
-16,0,-3,-4,1,-1,34,124,2
9,5,-3,-2,-3,-6,-55,-52,2
-7,-5,2,-3,-9,-2,11,19,2
39,13,2,8,14,10,15,34,2
-27,14,1,-2,3,-3,0,-61,2
8,-14,-6,0,-1,-3,43,44,2
35,3,11,5,8,9,11,-8,2
19,8,-2,7,6,4,-26,16,2
1,3,-2,-10,-12,-6,13,-89,2
-6,-18,3,0,-1,0,-61,-15,2
39,2,0,1,-1,-3,10,14,2
8,-19,-8,-2,2,4,43,5,2
11,-21,-11,-1,3,-3,-17,29,2
3,-19,25,1,1,1,30,90,2
-19,-2,6,-3,-5,-6,-25,-88,2
24,-10,-9,2,1,3,14,66,2
13,-1,6,2,5,-1,-21,-51,2
25,5,-6,-1,3,5,13,22,2
-4,-7,4,3,8,5,28,96,2
45,1,6,-2,2,1,33,106,2
26,-2,4,3,0,3,3,41,2
33,-16,-3,5,0,1,-29,39,2
15,9,1,1,0,3,16,-5,2
0,2,12,2,6,3,30,28,2
-15,-7,-21,-5,-15,-6,-36,-34,2
-13,-14,1,-2,3,-2,-7,-66,2
-13,-13,-21,-3,-1,1,12,-17,2
-7,3,6,3,2,5,-13,-34,2
6,-26,17,12,7,7,42,90,2
-43,13,-12,-13,-6,-8,17,14,2
-46,-22,-14,-11,-11,-11,4,-56,2
-17,-9,-5,-8,-10,-6,-41,4,2
14,2,6,3,-1,0,-11,-15,2
36,5,-2,5,4,14,71,11,2
11,18,7,0,-3,-10,-101,-32,2
-4,-16,-9,-5,-4,-3,4,51,2
12,6,0,-6,-3,-5,34,9,2
-9,-2,-6,-1,-4,-3,-10,-86,2
2,6,24,4,3,-1,6,2,2
28,42,-10,5,8,7,21,-39,2
-46,-4,1,-2,-5,-2,-45,-57,2
12,13,0,0,2,-2,-29,27,2
-2,2,4,-1,0,-1,-2,-21,2
6,0,1,4,1,2,-5,-20,2
-3,-8,2,0,4,8,51,69,2
0,8,1,1,0,-2,-40,-90,2
-6,-5,-8,1,-5,-1,3,12,2
2,24,2,-2,-3,-1,22,-33,2
-15,10,-5,-2,-2,-5,8,-74,2
-18,-1,-2,-1,-1,-4,-19,105,2
18,10,1,4,1,4,-4,-66,2
-8,2,-2,-2,-1,4,25,32,2
15,17,7,2,1,2,1,-46,2
9,3,0,3,4,2,-26,-47,2
-55,13,-7,-4,-5,-9,-33,-9,2
13,6,4,-3,1,-2,22,-8,2
-51,-8,-8,-6,-5,-4,-43,-100,2
-7,-5,-3,-2,-2,-1,14,39,2
55,1,-2,2,6,5,15,94,2
-8,-12,0,-2,-4,-1,-20,-28,2
8,23,3,2,5,4,14,22,2
-20,1,-5,-2,-2,-4,-6,-16,2
-5,-13,-2,-1,-2,1,-33,-49,2
-7,2,-4,-3,-5,-6,50,41,2
23,17,5,5,1,3,22,46,2
5,-3,0,1,-1,-7,-69,-46,2
10,-4,-5,-4,-1,-1,-4,21,2
-25,3,-1,0,-2,-1,-8,61,2
64,11,12,11,16,15,-21,10,2
1,-13,-9,-8,-14,-8,51,-60,2
23,4,-5,-1,-1,0,0,27,2
-25,-1,-4,1,-1,-3,-43,-98,2
-1,19,3,-1,1,-1,24,14,2
19,11,4,3,7,3,-18,-39,2
-9,-8,-4,-1,0,-3,22,71,2
22,-4,0,-2,-1,3,58,61,2
-11,7,-3,-4,-4,-9,-64,22,2
-6,-18,5,1,2,4,-14,29,2
-17,-8,-12,-5,-4,-4,60,26,2
-6,13,3,2,2,1,-58,-27,2
-15,-20,19,10,14,-5,-9,-38,2
8,-3,-23,-15,-7,6,31,92,2
-35,-33,-11,-4,1,-8,-16,-23,2
28,-13,6,1,6,9,34,-81,2
13,18,1,-5,-13,2,-41,78,2
-31,6,3,-1,2,-6,-35,-56,2
-16,-8,0,-4,-4,-3,63,28,2
5,-2,-2,2,0,-4,-38,-21,2
15,-13,-3,-4,-2,-2,15,31,2
4,-9,11,10,5,13,43,39,2
7,-2,3,-1,-4,1,-34,6,2
-8,0,-1,-5,-6,-6,-3,45,2
6,-5,-6,1,0,5,64,-35,2
-7,-15,-1,0,-2,-4,-20,93,2
-30,8,2,3,4,0,-5,-90,2
-10,-7,-3,-4,-5,-10,8,54,2
27,-7,-1,1,1,2,-38,63,2
-4,0,-5,-2,-2,-5,19,38,2
-3,2,9,2,1,4,-4,48,2
19,-2,4,3,0,4,-32,-70,2
67,27,-7,-6,-3,-2,34,28,2
17,17,7,4,3,2,-18,-65,2
6,5,3,-1,-2,0,23,-35,2
-82,-34,1,-1,-6,-4,-46,27,2
48,41,-7,4,4,7,-21,45,2
61,9,0,0,-1,-2,57,66,2
-1,7,-2,-2,-1,3,75,-28,2
71,27,9,7,12,11,-18,69,2
-61,-13,0,-3,-2,-5,6,-30,2
-47,-14,0,-4,-11,-4,-39,25,2
16,20,1,1,4,7,-6,14,2
-4,-1,-5,-4,-7,-4,51,122,2
-29,-13,-3,1,0,3,22,-42,2
24,10,-2,-1,-1,-5,-26,-60,2
4,-6,3,3,3,-2,-29,25,2
-61,-1,-2,0,0,-1,-11,-92,2
-22,-12,-6,-2,-4,-6,8,36,2
-6,3,18,4,1,0,18,-41,2
-17,2,-19,-1,2,-2,-36,-13,2
19,21,-2,-2,0,-1,-12,-39,2
-14,-8,9,0,-2,-5,11,59,2
-26,11,-28,-6,-5,-3,53,25,2
28,13,11,2,5,7,-18,-9,2
-26,-15,-5,-2,0,-2,6,24,2
-14,-14,-3,-4,-10,3,-13,-15,2
24,-1,16,5,4,3,48,26,2
-16,1,-5,-6,-5,-9,-32,62,2
4,-8,-11,-3,-6,-3,30,56,2
0,2,10,5,4,2,-30,-73,2
-1,-15,-1,-7,3,0,-25,51,2
-24,12,-5,-1,0,-3,5,-47,2
23,-5,11,3,2,-1,0,-17,2
3,1,-16,-1,3,3,-5,49,2
-10,-10,13,2,7,2,5,-38,2
18,-18,1,1,-4,-2,-13,-8,2
-7,2,1,-2,-3,-2,-22,-29,2
-29,-18,-4,-5,-4,-2,65,-46,2
-2,-11,-8,2,2,-3,-46,-61,2
-9,-12,0,-6,-6,-8,-30,10,2
16,3,0,-1,0,1,24,35,2
0,-30,-4,-3,-4,-5,22,0,2
34,1,8,7,7,10,-38,82,2
1,-13,8,4,-1,-5,-14,-5,2
-9,2,-25,-11,-9,-6,24,23,2
-19,-14,-10,-5,-1,-1,15,56,2
-27,-15,12,5,3,6,-46,-48,2
0,-29,-25,-6,-8,-17,-16,14,2
21,8,7,2,5,3,37,30,2
36,18,9,-4,-10,-3,-46,-13,2
-34,-6,-8,-4,-8,-6,21,45,2
35,7,22,7,8,12,-3,-9,2
28,-7,5,6,2,4,1,33,2
-31,-1,-12,-5,-4,-8,-50,-111,2
-1,-5,-9,3,3,2,29,-3,2
4,14,7,0,-2,-1,26,55,2
10,-24,-1,2,4,9,13,14,2
-22,7,9,3,1,-4,-16,-55,2
-21,-11,-29,-12,-6,-5,12,-105,2
-11,-11,-5,-1,-4,-1,-21,30,2
-13,-15,4,0,4,2,-21,-28,2
12,-6,0,3,2,0,6,17,2
-33,-11,-7,-2,-8,-11,-1,-85,2
-12,-16,9,0,3,3,9,67,2
-25,8,4,0,1,-2,13,-128,2
-6,4,-4,-6,-1,-13,-92,45,2
15,-12,-2,0,2,5,19,-26,2
-13,-10,-4,1,-4,5,10,-45,2
23,27,17,1,2,3,18,67,2
-3,-22,1,7,9,11,40,76,2
-7,-11,-6,-10,-14,-23,-31,-68,2
24,2,-5,1,2,7,20,0,2
2,-4,-2,-1,-1,0,36,69,2
22,3,4,3,1,8,-18,9,2
13,-14,5,7,16,7,-31,15,2
25,21,4,-3,-10,-1,76,26,2
-63,5,-14,-7,-10,-13,-33,-50,2
-47,-5,-2,-3,-4,-3,0,-28,2
11,9,12,4,3,5,31,-4,2
15,2,-25,-1,10,6,25,-1,2
12,18,1,2,-1,-9,-92,25,2
25,17,0,-4,-6,-11,44,43,2
-4,20,-19,-5,-4,1,-10,-42,2
-27,4,-1,1,4,4,-28,-93,2
27,3,5,-4,-7,-2,26,-10,2
-32,-26,-6,-1,-2,0,-5,-91,2
6,22,20,-2,-3,-3,-43,11,2
24,-8,-2,3,5,2,17,94,2
-46,-5,-12,-3,1,-2,-21,-79,2
-5,-14,3,2,9,1,-18,-40,2
33,1,0,-4,-13,7,36,69,2
-38,0,0,-5,-1,-3,63,-25,2
-30,5,-5,-4,-5,-12,-29,-82,2
8,-13,-4,-2,-3,-7,51,127,2
-19,-4,-2,3,5,1,-34,-48,2
21,15,5,3,-1,1,38,1,2
75,9,1,-2,-3,3,18,87,2
-14,19,11,-4,-2,2,-13,-5,2
16,-2,-5,3,4,5,106,53,2
-23,-16,-18,-11,-9,-12,-99,22,2
11,-10,4,7,8,9,55,84,2
14,10,-12,-2,-1,-2,-61,-9,2
22,-12,-12,0,5,5,13,77,2
-4,-1,9,3,7,9,35,37,2
-8,0,-2,-1,-2,-2,-17,19,2
-37,-31,-10,-12,-8,-16,5,-75,2
-21,-8,0,3,8,-4,-47,72,2
14,8,3,-2,-9,-5,-6,-43,2
-31,-6,1,-12,-3,-2,-5,-116,2
18,-8,0,0,1,4,32,-4,2
67,-4,5,1,2,3,28,69,2
-22,-7,0,2,1,-9,-97,1,2
7,6,1,5,3,3,24,-13,2
10,-2,4,3,2,5,26,-23,2
-22,11,-7,-6,-11,-10,-38,-41,2
8,-6,7,2,2,1,7,65,2
-2,-3,-1,2,0,7,32,-75,2
7,18,-3,-3,-1,-2,-21,26,2
-6,6,5,-1,2,4,3,-49,2
-5,-14,-3,-6,-10,-11,1,8,2
12,0,0,4,7,3,-21,-47,2
82,18,10,11,15,12,77,11,2
-62,-5,-3,-10,-18,-10,-41,-69,2
6,-2,10,6,8,7,-21,-66,2
5,-13,-7,-6,-4,-1,1,123,2
0,8,-2,0,-2,6,9,-99,2
-16,-25,-3,-1,-4,-11,23,50,2
11,18,10,4,5,1,-12,-57,2
-19,-11,-12,-7,-8,-1,0,29,2
5,-5,-11,0,-1,2,-17,37,2
3,-2,5,2,4,3,39,38,2
10,2,-2,-2,0,1,-5,54,2
-3,-1,8,3,7,-4,-45,-50,2
10,-13,17,5,-1,8,24,23,2
-67,-5,-8,-7,-6,-7,-42,-79,2
8,-22,-10,-6,0,2,10,-16,2
2,-4,-1,5,10,6,11,62,2
3,-17,1,-5,-8,3,66,15,2
35,4,1,-5,-13,-12,-55,-34,2
13,2,4,0,-8,-6,-30,38,2
-38,-8,-7,-6,-6,-9,-83,-70,2
-23,-7,-7,0,4,-1,-2,55,2
4,-19,6,3,8,1,-21,-43,2
-15,4,-7,-6,-4,-3,83,31,2
17,-5,-6,-1,-7,-9,-24,-45,2
22,5,2,2,-3,-5,-20,30,2
3,10,7,6,5,13,59,64,2
1,4,2,-4,-3,-17,-110,-51,2
-5,-5,4,9,-1,5,62,26,2
-6,11,-1,-5,-1,-3,-43,-16,2
-1,-13,-2,0,5,0,-8,-38,2
0,-2,-1,1,-5,5,26,-36,2
32,22,10,5,8,10,52,105,2
-27,-18,-6,-2,1,-11,-62,16,2
16,-1,-1,3,-5,4,-12,-26,2
-33,2,5,-3,-6,-10,49,-15,2
-39,-17,-11,-6,-5,-1,25,-79,2
9,7,-1,0,0,-4,42,18,2
-31,13,7,-1,0,-3,-29,-88,2
19,-2,-12,2,8,10,32,28,2
-33,21,1,-3,-3,-5,-36,33,2
-51,-11,-16,-10,-7,-5,4,-71,2
12,8,8,1,0,3,12,19,2
-5,11,-1,0,0,1,-7,-37,2
7,27,2,0,1,7,11,-60,2
-15,1,-3,2,1,2,-64,-19,2
-16,2,-11,-7,-5,-3,97,127,2
31,-12,18,7,7,9,8,65,2
35,-26,-19,-5,3,1,30,83,2
-3,17,-2,1,-1,-7,19,83,2
7,10,-3,-3,-8,1,-13,25,2
-14,3,1,0,1,3,18,36,2
23,14,9,2,1,-3,-5,-59,2
26,3,6,3,-2,-1,4,1,2
63,23,-2,6,10,7,-7,-33,2
-20,-7,-8,-3,-3,-1,6,-104,2
-6,27,7,0,-1,-7,-82,-63,2
26,6,-4,-5,-4,1,30,46,2
-76,-18,-5,-6,-3,-9,-37,-56,2
3,8,1,2,4,2,-1,4,2
14,0,-1,-1,0,-2,-3,39,2
-30,6,11,4,0,5,0,-98,2
18,-11,4,-2,-2,-7,0,70,2
-7,-1,-6,-2,-2,-1,-9,-2,2
-22,-12,10,-2,-5,-5,59,72,2
-11,-4,-31,-10,-2,-8,-98,-68,2
-26,-14,-4,2,8,3,11,-2,2
13,14,6,2,2,-1,-12,-52,2
-4,0,0,8,-6,1,38,88,2
-10,-37,5,-3,-1,-8,-52,-67,2
33,-3,2,2,10,4,0,70,2
5,-4,-6,-2,1,1,1,-10,2
-4,-7,-3,-2,0,2,-8,-2,2
-1,-18,7,3,3,7,31,0,2
16,-7,7,3,-7,-5,-22,30,2
2,5,-3,-1,-1,-5,-26,34,2
-14,-15,1,2,2,10,51,-128,2
-20,2,1,-1,-2,-6,-48,70,2
-4,2,-9,-6,-4,0,33,-15,2
-5,-4,-2,-1,-2,-2,-52,-9,2
15,0,-1,-2,-4,-2,11,2,2
-4,10,-1,1,-2,3,28,-23,2
34,-14,5,4,5,6,19,92,2
-33,8,-4,-8,-15,-4,24,-55,2
-50,3,-10,-2,2,-13,-117,12,2
19,-12,7,3,1,3,57,76,2
33,8,1,-2,-1,-3,14,47,2
-14,-26,-6,-3,-5,-5,13,20,2
-25,-27,-1,-4,-9,-4,-23,-53,2
2,-33,-1,-4,-7,3,20,21,2
-8,0,-5,1,-1,-7,-29,-20,2
-4,-17,2,3,5,-3,-36,96,2
21,-5,2,-1,11,12,15,-46,2
9,-28,4,0,0,0,-11,52,2
-4,-40,-24,-8,-4,-3,-8,-59,2
-25,1,7,-1,1,1,5,2,2
19,-16,-8,-1,-2,-2,14,26,2
2,-12,-4,2,0,2,9,1,2
-4,2,40,7,5,2,3,26,2
-12,-8,-49,-11,-5,-2,17,-74,2
44,-13,-5,-5,-13,-2,-25,6,2
-44,18,8,0,-3,-2,4,-108,2
-20,-6,-10,-4,-5,-7,-1,22,2
16,9,12,0,0,-1,0,35,2
-6,12,4,0,-1,-3,23,-22,2
18,-13,-5,0,5,2,23,-4,2
14,3,2,1,-3,2,-37,-47,2
5,12,9,5,4,1,28,23,2
-1,-2,-5,-6,-4,-6,2,84,2
16,-7,4,1,3,0,17,84,2
-30,1,-7,-5,-6,-4,-28,17,2
18,-3,9,3,4,5,-12,-48,2
4,0,-2,-3,-3,-9,-41,69,2
6,-8,3,-1,0,6,21,20,2
13,7,-8,-1,-7,2,16,-11,2
-18,12,-2,-4,0,-1,20,-26,2
9,0,2,-1,3,3,18,-2,2
26,-5,2,0,-7,1,-41,-75,2
14,10,-12,2,1,-1,18,-23,2
10,7,4,1,4,-2,21,32,2
-6,-4,2,3,2,4,9,65,2
9,9,1,1,8,-3,-2,-38,2
-48,5,5,-6,-12,-12,-60,58,2
22,-31,-9,-1,-2,0,-1,57,2
16,3,1,0,0,-6,-33,-6,2
-6,10,-4,-2,2,0,-11,-5,2
5,-13,5,0,3,6,89,1,2
-3,6,0,-3,-4,-5,-26,-9,2
-16,-6,0,1,1,0,1,-13,2
9,-11,0,-1,-4,-4,-1,-7,2
5,5,-5,0,2,0,5,-7,2
7,-4,7,3,1,4,-6,5,2
9,10,-1,-1,4,5,39,-11,2
-32,4,-4,-4,-5,-9,-23,-49,2
30,18,-1,-1,-1,3,3,22,2
-52,-15,0,3,5,7,2,-8,2
-5,11,5,2,1,3,33,-21,2
-13,5,-10,-9,-11,-17,-45,-34,2
-8,-5,-4,-4,-1,-4,25,51,2
15,5,5,3,1,2,-9,23,2
-5,9,-3,-1,-1,-4,-14,82,2
18,-1,5,6,7,14,52,17,2
-17,1,-5,-1,1,-5,-48,-26,2
11,9,4,-1,0,-2,20,34,2
39,20,0,3,11,3,-3,-52,2
-17,1,-11,-9,-5,1,3,74,2
-8,-21,2,3,2,4,-11,-46,2
19,2,-3,-3,-6,-3,31,72,2
-25,-11,-8,-2,-2,-6,-18,-19,2
-2,-3,3,1,-1,-3,18,51,2
4,15,3,2,3,4,-1,12,2
0,-3,-1,4,2,-2,-30,-34,2
-6,14,1,-2,-8,-4,9,33,2
22,23,2,3,2,1,1,31,2
-31,-8,1,0,0,4,9,27,2
10,16,-2,-2,-5,-11,-37,-39,2
0,15,2,3,9,5,51,16,2
-36,-1,-11,-11,-12,-16,-68,-52,2
21,16,-1,1,3,0,-28,9,2
-18,6,2,0,-3,4,5,20,2
-19,-15,0,-3,-3,0,-17,-29,2
-7,3,3,1,2,2,20,21,2
-11,-3,1,3,-4,-4,6,-24,2
44,1,-3,-8,-3,2,6,-18,2
43,-8,12,2,0,2,21,36,2
9,-6,-4,4,0,3,-23,9,2
-14,3,-10,-4,-11,-1,6,-3,2
4,-17,0,1,2,1,29,4,2
11,2,0,1,0,1,-40,19,2
-16,-14,4,-2,0,-2,9,-19,2
1,-5,6,0,2,-2,-26,14,2
-45,-10,-2,-1,0,0,-9,67,2
10,-24,-8,-7,-8,-5,5,31,2
11,-13,-4,0,1,1,-3,-13,2
-3,10,9,-1,2,1,-13,-95,2
-3,-3,-18,-5,-5,-3,6,-7,2
19,-22,4,0,-3,-8,-50,-35,2
17,4,3,6,6,4,14,35,2
18,-18,-6,-4,-5,6,41,68,2
-15,-1,7,-3,0,-4,-22,-37,2
-30,-13,-6,-2,4,-5,-18,-18,2
0,7,-5,9,8,10,25,-59,2
19,0,21,-8,0,-1,32,54,2
-25,-21,2,2,6,-2,-11,-47,2
-29,3,-5,-7,-21,6,27,16,2
9,6,33,3,1,0,10,-42,2
-13,-5,-58,-2,7,-5,-22,-1,2
-2,-7,0,-2,-4,0,15,-18,2
66,40,0,1,3,2,21,-15,2
2,-6,3,1,-2,2,3,41,2
3,-2,11,6,3,5,11,-23,2
-21,-13,-2,-2,1,-2,6,-43,2
-15,-8,-6,-1,-1,-5,-8,-20,2
-19,-1,-1,-3,-4,3,24,15,2
14,-2,2,-2,-3,-10,-47,-71,2
10,18,0,2,0,1,4,13,2
-18,-16,8,0,0,3,-38,-41,2
-3,-3,-11,-7,-6,-8,32,-14,2
-28,-12,2,0,1,-4,-61,-53,2
15,9,4,3,0,3,40,79,2
-19,2,-5,-1,-2,-1,21,45,2
5,-2,-4,-3,2,-1,6,42,2
5,7,-1,1,-1,0,12,17,2
14,7,-1,-4,-2,-1,-41,-33,2
18,5,4,4,-4,3,28,114,2
-10,3,-9,-11,-8,0,-11,-19,2
-10,3,5,-8,-4,3,36,-10,2
7,15,2,2,-1,1,15,30,2
-20,4,-3,-6,-2,0,9,25,2
-9,7,-2,1,0,-1,1,-36,2
-7,-5,-2,-1,-2,-4,-29,-9,2
-5,-16,0,-2,-3,-2,-12,-13,2
38,4,0,3,3,-1,-29,-30,2
15,12,2,2,-1,-3,21,59,2
7,0,1,0,-1,1,17,15,2
7,-5,2,2,3,5,12,50,2
-7,-6,2,3,3,2,-28,-40,2
-30,-19,-10,-5,-8,-14,-30,44,2
11,-10,-2,0,0,0,30,29,2
10,0,3,2,2,4,23,84,2
-24,-29,-7,-3,-3,-4,-23,-123,2
-9,11,0,0,1,0,-12,72,2
13,-3,3,1,0,1,45,73,2
-10,-11,-8,-5,-3,-7,-59,-88,2
12,-7,0,-1,3,2,27,29,2
29,7,3,5,8,9,18,64,2
-27,-20,-5,-3,-4,-8,-5,45,2
5,8,-2,-5,-1,0,2,-41,2
-19,24,0,2,-1,-2,21,-6,2
6,-1,-1,-3,-3,-5,-53,-26,2
6,6,2,1,2,3,7,40,2
5,4,-3,2,0,-4,-1,-37,2
-38,-15,-4,-4,-4,-5,30,40,2
-5,-2,0,0,5,1,-19,-87,2
-4,22,-2,2,-2,1,0,-58,2
14,-5,2,2,-2,-1,-34,26,2
5,7,1,-3,-8,2,19,3,2
-1,8,2,0,-3,-3,13,-38,2
25,-22,2,2,1,2,-25,-13,2
6,-4,0,-2,-2,2,-2,-31,2
-3,14,1,0,6,3,35,22,2
-10,-50,6,5,8,2,-29,30,2
-8,-7,-7,-8,-14,-11,6,58,2
-3,7,0,-1,0,1,1,-10,2
7,-5,-2,4,1,-8,-5,-26,2
-6,-1,-4,2,-5,2,3,-33,2
2,1,1,-4,4,2,8,22,2
0,-13,0,0,-5,-2,8,26,2
-2,-7,-2,-2,1,3,-20,1,2
15,3,-4,-2,1,-2,-3,11,2
-50,-10,-5,-7,-7,-7,-29,-120,2
-29,-1,6,14,9,1,12,-40,2
-3,-21,1,-7,-4,-1,-17,15,2
-6,17,-4,-6,-12,-5,-11,1,2
41,8,2,3,2,6,26,34,2
10,-3,9,4,3,0,-17,-28,2
-8,11,14,2,0,-1,0,54,2
16,-3,-14,1,8,12,17,-34,2
5,2,-9,0,0,-5,9,53,2
-35,-1,-10,-10,-13,-12,-20,-11,2
11,8,12,5,4,3,-13,-42,2
-4,0,9,-2,-2,-2,-7,-22,2
-33,-18,-6,-1,-5,-2,10,-44,2
-8,1,-3,-3,1,1,24,29,2
-6,-8,-8,-1,0,1,-19,-25,2
0,7,-4,1,2,0,11,24,2
8,3,4,2,3,-2,-7,-23,2
16,10,0,-5,-10,-5,-8,21,2
18,3,-7,-1,-3,2,55,1,2
-15,-4,2,7,4,-3,-46,38,2
-4,7,7,0,2,1,-5,47,2
56,11,7,2,5,8,14,13,2
-68,-25,-8,2,6,-6,6,-44,2
59,6,2,-4,-7,-2,-7,-16,2
13,12,3,2,5,6,29,83,2
-1,0,-8,-1,1,3,20,65,2
7,-7,-3,0,3,1,-12,11,2
-14,7,0,-2,-3,-8,-31,0,2
-15,4,1,4,2,4,-8,-15,2
19,19,2,1,5,6,3,-44,2
-40,6,-2,-4,-7,-8,28,50,2
-21,-3,0,-4,3,1,-3,13,2
21,3,3,-1,-10,1,-4,-46,2
5,-6,2,3,3,0,-22,-24,2
5,0,20,-4,-11,-3,-35,-51,2
-6,18,-6,7,4,2,29,9,2
-26,2,-11,6,5,-5,-4,8,2
-3,-4,-19,-11,-3,-9,21,-17,2
13,13,6,2,-3,-2,-41,-5,2
-4,1,13,1,7,4,35,-1,2
23,2,14,2,-3,3,-23,8,2
-17,2,-2,2,4,1,18,-9,2
25,-2,-5,3,3,1,-22,15,2
-4,-7,-5,-7,-9,-5,26,30,2
1,3,-7,-1,2,-1,24,1,2
-15,-23,-2,-1,-5,-3,-4,-9,2
-22,-1,-7,-4,0,0,-16,-25,2
13,-2,0,-1,-3,5,16,-48,2
7,-3,-2,-4,-3,-6,-41,-49,2
-7,-7,7,8,9,-2,-5,84,2
21,12,-2,-6,7,3,18,34,2
14,-6,-3,1,-16,-4,-24,56,2
2,19,-1,-6,-7,-3,21,16,2
-24,-10,0,1,-3,-5,-43,-101,2
30,-10,-6,0,15,8,3,73,2
-21,1,-4,-2,8,10,22,4,2
19,0,-1,-2,5,0,-3,70,2
-20,8,3,-1,-8,1,6,28,2
-5,-1,-8,0,-8,-8,5,2,2
7,-8,2,0,-2,-1,1,-30,2
-2,-13,3,1,0,1,7,30,2
22,0,0,-2,-2,-5,0,9,2
-2,-10,-2,0,-2,7,23,-4,2
-43,-42,26,6,-1,-7,-44,44,2
4,-16,-26,-8,-1,-5,18,-104,2
8,-19,-9,-3,-2,-9,-23,49,2
-7,-21,-6,-4,-3,-3,-21,-37,2
-1,-7,8,9,4,6,10,-14,2
-17,-10,5,-3,-6,1,6,-17,2
14,-6,2,-1,6,5,4,60,2
7,-11,-1,5,1,-4,6,2,2
-46,-14,-15,-7,-4,-4,9,2,2
-18,-7,4,0,1,-3,-46,-91,2
1,8,-3,2,-1,4,17,-17,2
19,-10,9,4,0,5,34,92,2
9,-1,-8,-10,5,-4,-4,-4,2
-9,-7,-1,2,-1,-1,35,6,2
-29,-14,4,-1,-3,-2,-71,-52,2
4,11,-2,-2,-9,-5,33,4,2
32,16,3,8,5,4,55,55,2
-42,-2,-1,-3,-3,-6,-28,-67,2
-2,-7,0,-3,1,4,32,48,2
-13,-6,-5,-4,-2,-3,-45,-106,2
32,5,-3,1,3,1,10,-12,2
-16,10,2,2,3,2,-8,-37,2
-5,0,0,-1,-2,1,8,52,2
4,6,-5,-1,0,-3,0,-52,2
1,24,-3,-2,-1,1,31,-6,2
-28,-8,-1,2,-1,-1,-65,42,2
1,-12,0,0,1,0,32,31,2
-5,2,-1,-2,-9,-2,-14,19,2
-14,-11,-1,-1,-5,0,-28,-110,2
-2,4,-6,-9,-2,-2,5,92,2
0,26,-4,-1,-2,-3,35,-61,2
-55,-2,-4,-3,-1,-4,-17,-19,2
12,8,-3,-4,-9,-12,-52,95,2
10,23,5,-1,5,5,31,-57,2
-19,-6,-1,-7,-13,-5,-37,-23,2
32,6,1,-2,-3,-3,25,31,2
-9,25,-4,-3,4,2,-46,-19,2
16,-6,3,5,2,0,34,34,2
3,3,-3,-1,7,0,6,18,2
4,23,-2,1,-1,-4,3,-77,2
0,-5,-4,-1,-3,-2,6,52,2
32,8,4,3,1,2,-49,-26,2
12,14,3,2,0,5,32,-14,2
-15,-2,0,0,-1,1,-36,55,2
-21,-1,-3,-2,-4,2,44,-51,2
13,10,1,0,-2,3,9,-36,2
20,-6,1,9,4,-3,-14,11,2
-14,10,2,4,10,7,31,44,2
-17,-3,-5,-7,-7,-13,-44,-30,2
0,-2,3,8,10,1,3,1,2
84,26,11,8,11,8,-58,30,2
-34,3,-4,-4,-8,-10,17,11,2
-23,-9,-6,-5,-3,-7,-16,-29,2
11,-5,0,2,-1,0,43,72,2
6,-23,4,2,5,8,5,-78,2
6,-8,4,2,3,2,-88,-44,2
5,-1,-6,-2,-3,0,-15,21,2
-8,11,24,-2,-6,-9,7,82,2
-4,11,-11,-4,-3,2,11,30,2
-21,-8,-22,-8,-9,-3,17,-46,2
20,-10,-6,0,-1,-1,25,-6,2
-2,-7,3,3,3,5,-36,-48,2
-22,12,3,-4,-6,-3,22,-43,2
41,3,6,5,2,1,20,82,2
14,-3,3,2,-1,-4,-71,-37,2
29,-9,-9,-4,2,11,117,43,2
9,7,-5,-11,-13,-18,18,-11,2
0,-12,1,1,6,0,-68,24,2
-8,0,-7,-8,-8,-12,48,94,2
12,14,-5,-3,-4,-2,-10,15,2
-44,13,-4,2,1,-1,-14,-53,2
22,1,9,3,5,9,31,-28,2
1,-5,5,5,6,5,8,-22,2
-3,-6,-6,-3,-3,-4,-19,31,2
-36,-20,-4,-3,-1,-2,-1,-51,2
-6,5,-2,-2,-6,-1,7,27,2
5,7,4,0,1,2,-21,-46,2
-6,-11,-9,-3,0,-4,13,-10,2
-6,5,4,6,-5,7,-11,12,2
-28,-13,1,1,2,-1,20,-61,2
-55,-8,-1,-4,0,-2,-63,-55,2
-22,-15,-2,0,0,-1,-12,-75,2
-29,5,-6,-4,-2,-6,25,-58,2
16,-10,-2,-7,-5,-8,39,-40,2
29,-7,-4,1,0,7,21,57,2
2,-7,-2,0,1,-2,-53,-27,2
24,10,7,4,7,9,22,117,2
-7,0,-6,-6,-6,-4,32,-6,2
10,1,5,3,3,-3,5,46,2
11,-6,2,0,0,5,-27,29,2
24,-2,-2,-6,-8,4,5,70,2
-19,4,-6,-4,3,-6,31,1,2
18,1,3,5,4,1,-3,-10,2
-16,-3,-2,-2,-2,-3,4,18,2
3,-21,3,1,-1,0,-29,20,2
5,3,4,3,4,3,-44,-1,2
-25,2,-5,-3,-10,-4,46,-11,2
15,-3,3,1,2,6,5,19,2
-38,-27,-1,-1,4,-1,25,38,2
60,33,-1,-4,-4,-7,-30,91,2
40,-3,4,2,2,1,16,-41,2
-4,-6,-5,-2,-4,-1,1,-9,2
12,-13,-4,-2,-3,-6,-34,-32,2
-15,-5,-1,1,-2,5,6,-67,2
0,-8,-2,0,-1,1,64,121,2
-16,13,-3,-1,-3,-3,-2,-68,2
-30,-37,0,0,-3,-9,-2,37,2
32,-6,4,5,7,4,2,-49,2
16,5,3,0,4,0,-25,2,2
-25,1,12,3,0,3,14,-41,2
-22,22,-9,-5,0,-4,45,6,2
9,5,1,-2,-3,-6,-63,-20,2
4,-4,0,2,-1,3,-1,-9,2
-4,17,19,7,6,-1,5,-27,2
26,26,-32,-11,-3,0,-5,-21,2
-44,-7,2,3,1,10,33,57,2
-15,4,3,-4,0,7,-18,-31,2
4,12,-8,-6,-3,-8,1,-29,2
-37,-12,6,-2,-6,-4,-28,-29,2
16,-3,-1,1,0,3,11,20,2
35,-21,-3,-2,0,-8,-37,87,2
43,-4,-5,-4,-2,0,14,39,2
8,1,9,4,9,7,-9,-69,2
-5,-11,1,2,0,0,-19,100,2
22,7,4,1,1,3,33,-3,2
-2,1,-5,0,0,1,-58,-68,2
5,-1,6,2,7,5,29,69,2
-43,0,-12,-7,-11,-24,-17,-128,2
-8,17,-2,-1,9,3,51,64,2
-5,5,-5,-2,-6,-2,-36,-16,2
-11,-6,-3,-4,0,-7,-42,66,2
27,13,4,0,0,4,-3,-33,2
-4,16,-5,-3,-1,-3,26,-4,2
2,-14,2,3,3,5,-5,-14,2
-16,18,2,-1,-6,-9,20,-33,2
-20,5,-3,-1,0,3,34,-27,2
21,8,-1,-6,-10,-6,-85,-63,2
-1,-12,1,2,2,5,14,30,2
26,14,1,-1,-3,5,34,-2,2
-32,-8,-1,-2,-3,-6,-44,69,2
-28,-44,-1,3,3,3,15,-52,2
29,9,0,0,2,2,40,127,2
30,-9,3,0,4,4,27,107,2
15,-10,-5,-4,-3,-8,-34,31,2
-19,-1,0,1,-1,1,-9,-19,2
-13,18,2,-1,4,-5,-7,-25,2
-4,-25,-10,-3,-9,1,17,-41,2
23,-19,-9,-1,1,4,-4,2,2
1,8,4,1,2,1,33,35,2
-32,-24,-21,-1,-11,-4,11,19,2
-5,-3,-2,-7,-1,-1,-52,-78,2
17,20,8,-4,-1,12,54,91,2
11,-6,-5,0,-2,-5,7,-101,2
-2,-13,5,-1,3,6,60,70,2
8,-23,8,4,1,1,-72,-33,2
1,-17,-4,1,1,-3,31,30,2
-3,3,4,-1,-2,-1,0,-62,2
57,7,-3,-1,-1,-1,-20,-10,2
-11,-12,0,2,1,0,-6,-31,2
11,1,2,0,4,5,18,-30,2
-13,-15,1,1,1,2,20,36,2
-30,-21,1,1,3,-3,-33,-90,2
33,45,-1,3,1,-1,-13,-27,2
0,1,0,-3,-10,-5,0,-16,2
-7,4,-2,-3,0,-4,-10,69,2
-10,-8,-2,-3,-5,-1,-9,-57,2
-11,-12,4,6,-3,0,9,-31,2
-13,-6,4,4,7,0,-30,-94,2
8,-3,-1,-4,1,5,28,33,2
-5,-6,-1,-2,-2,-7,-19,74,2
-4,-5,2,2,4,1,-2,2,2
-24,-1,1,1,1,1,-28,-63,2
3,8,-6,-2,0,0,17,-41,2
-19,15,-5,-5,-6,-11,19,3,2
5,7,-1,-5,-6,-4,33,46,2
18,-30,5,5,6,9,8,78,2
-36,12,-4,1,-5,-5,13,-16,2
-4,-12,2,0,6,-5,-99,13,2
7,11,0,-1,2,-1,37,52,2
-1,16,-3,-7,-16,-3,34,30,2
20,2,0,0,2,0,-43,9,2
-7,-16,0,3,-1,3,38,-26,2
-54,19,-5,-6,-5,-5,-2,-18,2
-24,6,-2,1,1,-6,-37,-11,2
-16,-6,-2,-3,-5,-5,33,65,2
21,8,4,3,2,8,37,76,2
19,-14,1,6,5,2,-16,-9,2
-7,-2,-1,-4,-1,-1,10,28,2
-22,-11,-2,1,-5,-4,-48,-93,2
29,16,0,0,2,3,7,-26,2
-24,-3,-5,-6,-8,-7,-23,-46,2
4,11,-7,-6,-3,-13,11,70,2
8,-4,-1,0,6,2,7,45,2
24,3,0,-1,3,7,2,-14,2
17,-8,2,3,1,-3,4,10,2
2,0,4,4,3,2,-86,-127,2
-20,6,-8,-6,-8,-14,15,83,2
-29,1,-4,-6,-5,-4,32,-6,2
10,-18,3,4,2,5,11,23,2
1,-14,0,0,1,0,1,-20,2
18,-16,5,6,1,7,0,35,2
-11,15,-1,0,3,-2,12,-27,2
13,10,-1,-3,-5,0,-13,65,2
22,11,6,2,-6,5,34,1,2
12,-7,-1,0,-3,0,-36,-43,2
34,-1,0,0,1,3,31,95,2
6,-15,-3,-6,-2,-6,-29,15,2
11,1,3,4,6,6,70,37,2
-11,24,1,0,0,-2,-70,-63,2
-10,-9,-3,-3,-5,-3,-4,32,2
-11,1,5,1,5,5,-33,-122,2
-29,6,-8,-7,-3,-2,-2,-55,2
1,-8,1,-5,-3,3,54,-73,2
-8,7,-3,-2,-3,-5,-27,9,2
-17,9,-2,-2,0,4,-21,-67,2
7,-2,-3,-3,4,-6,4,77,2
-29,11,-6,-3,-4,-11,-31,-73,2
-20,6,-6,-8,-10,-4,-8,14,2
7,-8,4,6,5,2,44,50,2
-3,0,9,2,-4,3,-22,20,2
-16,-11,-11,-1,3,6,11,-23,2
-62,-33,-6,-2,-2,-3,2,-30,2
0,-6,-5,-2,0,-7,-31,0,2
2,-6,-5,-2,-1,1,18,-30,2
52,25,4,2,3,7,23,31,2
112,20,0,0,-3,-4,-27,-71,2
-35,-22,-4,-7,-5,-2,31,59,2
55,-23,9,4,3,1,-21,-57,2
50,21,3,4,4,9,25,109,2
34,18,6,5,6,5,-16,-25,2
10,-2,-2,-1,-2,-1,-4,55,2
27,6,-1,-1,1,4,35,-4,2
-13,-11,2,-3,-3,-6,53,93,2
-72,-35,-9,-6,-3,-10,-80,-54,2
31,22,2,3,4,6,5,-81,2
-50,-17,-2,2,-5,-4,55,104,2
-8,-15,-2,2,12,3,9,-41,2
-4,18,6,4,4,9,10,36,2
-43,-58,-5,-2,-5,-14,-1,-90,2
23,-9,-1,11,15,0,-56,-3,2
-68,6,1,-5,-11,-5,-28,-103,2
64,5,0,-1,-1,-1,19,40,2
3,2,2,0,4,2,-8,22,2
1,6,-3,0,1,0,9,-27,2
10,-19,1,-1,0,-1,-16,0,2
-20,-12,0,1,1,-1,10,27,2
19,-1,0,-2,-1,3,26,51,2
10,-18,-2,-6,-4,-1,-11,-41,2
-5,-6,0,-2,-3,-3,-16,44,2
-15,-14,0,-1,-3,3,34,30,2
23,9,-2,0,2,0,17,-48,2
0,-4,2,-2,-1,3,-28,56,2
-2,-23,-4,-3,-4,-5,7,-65,2
-14,-6,-3,-2,5,-5,17,76,2
24,19,2,-3,-10,1,-2,12,2
-30,-1,0,1,-2,0,15,28,2
-35,-17,-3,-7,-6,-2,-2,30,2
-26,-7,1,0,3,3,25,-10,2
12,4,2,-3,-6,3,-9,58,2
12,0,-4,-3,-4,-8,12,-58,2
24,9,0,0,-2,-4,-23,12,2
-6,-12,-2,-7,-6,4,7,7,2
-30,0,-1,1,4,2,4,22,2
-5,5,-4,-1,0,0,-4,-35,2
4,-11,2,1,4,4,2,35,2
31,-3,-1,-2,-1,-2,4,-3,2
3,13,9,7,0,2,3,-15,2
-34,-15,7,0,-6,-8,-43,10,2
20,5,-25,-6,2,0,6,-28,2
-8,13,0,0,3,3,-11,-8,2
-9,-6,-10,-12,-15,-9,41,-8,2
-22,28,-1,-1,-7,-11,-99,-103,2
27,8,8,8,-2,-2,16,-4,2
-18,19,-1,2,3,4,13,-67,2
-39,-22,-3,-1,-1,-7,-69,46,2
23,-1,1,-1,1,2,13,12,2
9,4,5,2,1,1,4,22,2
-11,-10,-3,-2,-4,-4,-28,-38,2
0,-12,4,6,7,5,12,14,2
10,-1,-2,-2,-3,2,5,8,2
-16,14,0,-1,4,0,8,-3,2
-1,-28,-3,-1,-6,-7,-22,-19,2
0,6,-4,0,-1,0,5,5,2
-12,9,-5,-7,4,2,18,74,2
31,-10,7,1,1,3,24,91,2
-29,0,5,3,0,-1,7,-10,2
35,17,-6,-5,2,-3,1,-42,2
-19,-17,-7,-5,-4,-8,12,82,2
-8,10,5,0,2,5,36,-29,2
-2,-3,9,-1,-5,-3,-41,19,2
15,15,-14,5,12,-2,-25,-75,2
57,29,16,0,-7,11,48,37,2
-19,-5,-16,-3,-10,-5,-55,-61,2
20,-1,5,4,9,-2,22,85,2
-21,-9,-7,-3,-1,-2,22,11,2
-10,-3,-1,0,-1,-5,-23,-8,2
8,-2,2,0,0,2,49,74,2
5,11,-3,-1,-3,0,6,-23,2
5,-29,4,1,1,1,-15,47,2
-15,-19,-7,-2,3,1,15,-61,2
-11,-21,3,-1,1,-4,-54,-36,2
13,5,-5,0,-2,-3,3,-3,2
-3,-9,5,-3,-4,2,22,33,2
-2,-16,-3,1,-2,-1,2,-28,2
-22,-13,3,2,1,1,0,-8,2
-1,-5,-2,-2,-4,-2,-5,-68,2
33,0,8,5,9,8,-20,-73,2
21,4,-7,-5,-5,-6,43,106,2
-53,-12,-2,-2,1,-6,-9,57,2
-22,2,-5,-2,-3,-7,-89,-35,2
29,4,2,-5,0,1,72,83,2
-25,-1,1,3,6,4,-21,-71,2
-9,-10,1,1,-1,2,25,30,2
10,8,-2,-2,0,-2,-4,-19,2
-5,10,1,-2,-9,-1,-13,23,2
3,-17,-2,1,2,-4,-20,75,2
13,14,5,-5,-10,3,23,75,2
-9,-9,-4,-3,-2,1,80,-22,2
-12,-6,-1,1,-3,-6,-52,-5,2
0,-11,-1,-2,-2,5,6,-47,2
0,-6,1,1,3,2,-20,-52,2
0,-6,-2,-2,1,2,27,26,2
3,17,1,0,1,2,25,36,2
32,17,6,6,8,8,-7,22,2
-10,6,-8,-4,-3,-9,-23,-48,2
2,3,2,-1,-1,2,12,55,2
-13,1,1,0,-1,-1,-26,-90,2
-4,2,-4,-2,-4,-8,30,67,2
32,15,4,4,5,5,19,22,2
-34,-12,-9,-6,-9,-8,1,-10,2
-24,3,0,0,1,-1,14,-9,2
-50,-9,-1,-1,0,2,18,3,2
9,19,-2,-2,-4,0,2,-107,2
-13,-19,-1,0,-1,-1,-57,-46,2
12,6,0,0,1,-2,2,85,2
-5,3,2,-1,-3,-2,-32,-95,2
0,5,-4,1,1,0,43,19,2
26,-22,3,5,7,7,-7,21,2
61,18,-4,-5,-7,-9,-23,-61,2
-8,-7,-10,-2,-3,-4,-14,-51,2
20,-13,-7,-1,4,0,-5,17,2
44,-9,5,1,1,4,53,78,2
-19,-18,-4,0,3,-4,-72,40,2
6,10,7,-2,-3,12,33,85,2
-34,14,-6,-6,-3,-16,-65,-74,2
-18,-5,-9,-2,-4,-4,-35,70,2
35,10,0,-1,-2,2,96,60,2
-11,-6,-6,-2,-1,-3,-26,-20,2
-1,-14,4,3,2,2,-41,-41,2
-9,8,2,2,0,0,7,-17,2
-16,-8,3,-2,-4,-1,15,-30,2
13,-2,-1,0,-1,-5,-18,-20,2
23,3,3,3,-1,5,23,10,2
11,30,-1,-3,-3,-6,1,7,2
-26,-15,-3,-3,0,3,-14,-36,2
4,12,-5,-2,-3,-1,56,17,2
-11,-23,5,0,1,1,-22,58,2
-16,15,-5,-4,-1,-2,-22,-31,2
1,6,3,1,1,2,4,-24,2
-18,-24,-2,1,2,2,8,-13,2
7,-12,1,0,-3,-2,-1,42,2
-44,7,2,1,0,0,-5,-31,2
5,-20,-2,-2,-3,-2,-4,-26,2
-10,9,0,-1,1,0,10,-34,2
-9,-12,3,0,-2,-2,-32,-19,2
20,12,-4,-4,1,0,36,39,2
-16,-3,0,2,2,1,10,-3,2
19,14,3,2,-3,2,-19,-5,2
-4,-6,1,1,9,7,34,-42,2
11,-3,1,0,-2,-8,-34,5,2
-28,-12,-3,-3,-3,-1,4,24,2
13,-7,0,1,3,-5,-4,21,2
-4,0,0,0,-4,1,-16,-11,2
19,10,0,0,-1,0,20,-50,2
-33,-10,-2,3,2,-4,-20,28,2
-14,-4,-4,-6,-1,-3,18,7,2
-11,23,-1,-5,-1,-2,-33,-95,2
-19,-26,-3,0,6,-2,-18,-31,2
-24,-3,-4,-6,-9,-3,18,-49,2
-14,2,-2,1,1,-5,-18,-5,2
-8,-21,-3,-3,-5,-5,4,34,2
-19,-42,4,7,3,0,23,19,2
10,-15,-4,-12,1,4,-24,35,2
4,-11,-2,-1,-1,1,-18,-45,2
32,5,-2,0,-1,-1,55,-13,2
20,3,-1,-2,-2,-5,-33,20,2
8,-9,2,3,-3,2,6,-6,2
7,-11,-1,-2,0,-2,-11,-1,2
5,-9,2,2,1,4,10,3,2
9,-39,0,1,-1,0,-5,35,2
-7,16,-2,0,1,-2,-7,-27,2
-14,-2,2,1,4,3,16,-64,2
-3,24,-3,-2,-4,-7,-5,72,2
-22,-11,-4,-5,-8,-3,3,15,2
-5,-4,8,3,3,-1,-5,36,2
-2,-9,-11,-1,-3,-3,37,90,2
-21,-8,-5,-4,-4,-8,-48,-32,2
7,12,1,-1,3,5,3,2,2
-2,5,-1,-1,-4,4,0,-19,2
11,-4,3,-1,1,0,-18,80,2
23,9,2,-2,-7,0,-6,8,2
-1,33,0,-1,0,2,27,46,2
-8,-1,-2,-7,-4,-5,-42,-57,2
37,8,-1,2,2,4,-16,-34,2
4,21,-3,-1,2,2,40,82,2
16,11,2,-1,0,-1,-50,-120,2
13,5,-4,0,-3,-2,19,-30,2
-25,12,-3,-7,-7,-8,22,34,2
-25,-17,0,-1,2,-3,-38,-61,2
1,19,0,1,0,6,19,-71,2
-25,3,-1,2,2,-3,6,40,2
2,-3,2,1,1,3,-5,-3,2
6,-9,3,4,2,2,20,50,2
4,24,2,-1,-2,1,27,45,2
16,-1,-1,0,0,-3,-1,10,2
-26,1,1,-1,-1,-5,-46,-90,2
11,7,0,-1,0,0,27,43,2
-52,-8,-7,-3,-4,-2,-1,-48,2
-35,-10,-3,2,7,6,14,34,2
56,32,2,0,-5,-2,13,11,2
-28,-7,-3,-1,5,2,-45,-85,2
12,7,-6,-8,-6,-10,23,37,2
26,4,1,1,0,1,39,25,2
-13,0,1,-4,3,1,-33,-53,2
12,-5,2,4,-2,-3,13,11,2
0,-3,-3,-3,-1,2,-7,6,2
14,-4,1,-2,-3,1,17,31,2
-18,-9,2,3,0,-1,1,-47,2
9,-4,-4,0,-2,-1,16,41,2
-25,-6,2,-1,2,1,10,-21,2
21,-6,-1,2,2,0,9,35,2
-2,-12,0,0,0,0,1,1,2
14,5,9,-1,-2,1,21,-8,2
-4,-9,-7,3,2,1,-36,15,2
0,-2,1,0,2,2,22,27,2
7,-1,1,1,-1,1,19,30,2
-7,-5,-12,-10,-6,-12,-15,2,2
16,-28,8,2,1,2,7,41,2
6,-5,2,2,0,1,-30,-42,2
21,0,-2,0,5,2,28,63,2
-3,16,3,0,0,6,0,-21,2
-30,-7,-2,-3,-9,-5,-16,-20,2
-21,5,-2,-1,-4,-8,-8,-62,2
4,-15,-1,-1,4,-1,17,95,2
5,9,-1,0,0,-1,-8,-43,2
10,-4,-1,1,1,1,11,-3,2
-10,4,1,-1,1,-1,-12,25,2
-27,-11,0,1,-5,-2,-13,-19,2
14,-5,-2,-1,1,2,1,23,2
4,-6,0,-1,-2,2,12,-14,2
2,-3,-3,-1,3,-4,11,44,2
-7,-14,-2,1,-2,-5,-5,-37,2
-5,-27,-2,-3,-3,2,-5,8,2
20,-5,0,2,4,-4,34,42,2
-8,-4,4,1,3,5,-17,12,2
-12,-11,-2,1,-4,-5,6,56,2
-20,-6,0,1,0,-3,-35,-83,2
36,-9,4,7,15,2,-15,73,2
-17,-16,-2,2,-10,4,-2,-92,2
29,15,-2,-5,-4,-1,-21,-5,2
9,7,-5,-3,-5,-2,54,70,2
9,10,0,-3,-3,2,-30,17,2
27,11,-3,-2,2,-1,12,-3,2
-6,0,-1,-2,-1,-1,-4,-27,2
-16,-8,1,2,0,-2,-21,-13,2
5,1,0,0,2,2,-6,-40,2
4,0,-3,-3,-3,-2,51,43,2
-8,-4,-1,1,-3,-3,-86,-54,2
27,-1,1,3,7,4,83,91,2
-18,10,2,0,-5,-6,-10,-32,2
6,1,-1,-2,-5,-9,-95,-10,2
-15,-5,-2,-1,-1,0,6,-13,2
21,6,1,-1,-2,-5,-7,2,2
-39,5,-2,-1,-3,0,46,-74,2
-1,-16,-2,-1,0,1,-1,-20,2
40,35,-2,1,9,-1,-41,-41,2
15,15,0,1,4,4,2,-34,2
2,-2,-3,-1,-9,-2,-2,-5,2
10,7,3,6,12,2,9,0,2
-30,2,-3,-6,-9,4,39,25,2
-2,16,0,1,1,-2,-26,13,2
27,7,2,1,2,2,14,44,2
-27,10,-6,-2,-5,-7,-27,-45,2
18,-16,7,7,5,4,26,79,2
-21,17,-7,-8,-7,-6,-30,63,2
19,13,1,-1,1,3,-3,-22,2
15,-4,1,0,-2,0,-6,45,2
-8,9,4,4,4,5,29,6,2
8,6,4,1,-1,-1,-5,4,2
-2,3,4,2,5,4,-1,-7,2
-12,6,-7,-7,-3,-5,8,25,2
5,14,3,-1,0,0,25,0,2
-44,-5,-4,3,0,-7,-75,-106,2
9,6,-4,-7,-5,-2,24,13,2
-12,6,3,2,-7,1,-9,66,2
-10,-3,-2,-4,-3,-4,-18,-22,2
1,-2,-2,-3,4,-1,42,17,2
43,8,-2,-2,-3,4,0,12,2
7,1,0,-1,0,-2,-2,-92,2
7,-4,-4,-1,0,1,7,4,2
-6,-1,1,2,2,5,34,-14,2
-24,-19,-2,-2,-1,-11,-111,-11,2
38,3,0,2,2,5,26,27,2
-56,0,-6,-1,0,-6,-2,-57,2
33,14,6,5,2,12,61,58,2
-28,-11,-5,-4,-4,-5,13,5,2
-5,5,-8,-5,0,-9,-15,-22,2
-13,9,-1,-4,-5,2,-4,3,2
6,5,-1,1,3,1,-9,-20,2
-11,-3,0,0,-1,3,29,17,2
-4,-1,1,-2,-7,0,5,3,2
-6,-8,-1,-2,0,-1,17,-62,2
-25,14,-5,-10,-6,-10,-42,13,2
1,9,1,2,-2,5,17,-23,2
-14,-13,-4,-4,-1,-3,-4,-43,2
18,5,-1,0,-4,0,12,5,2
-10,1,-2,-2,-2,-1,-25,-11,2
-7,-5,0,3,4,-2,-6,-1,2
-15,19,-3,-2,-1,-2,20,82,2
-2,20,1,4,0,-1,-58,-77,2
-1,-6,-4,-5,-7,-4,65,73,2
-3,-8,-3,-1,-2,-7,-46,-28,2
24,9,4,2,2,4,2,57,2
6,-13,1,2,0,1,-6,29,2
-12,-21,1,4,8,0,9,-24,2
2,-2,0,-2,-3,2,33,47,2
11,-13,3,3,2,-1,-11,-7,2
8,-17,0,0,1,1,18,34,2
7,7,0,5,-1,1,-11,-53,2
3,-6,-5,-5,3,-9,-28,72,2
14,-10,7,6,9,5,3,-12,2
7,-17,-9,-2,-2,-1,-11,42,2
38,8,2,-1,-6,4,-6,-11,2
2,-12,-1,3,1,5,15,-49,2
-13,-11,1,-1,-2,1,40,22,2
38,-2,0,-1,-2,-3,-51,-32,2
0,-1,-1,0,0,-1,-18,-29,2
-4,-6,1,0,0,-1,-1,-28,2
5,2,-3,-1,0,1,6,-64,2
-19,-4,2,-5,-6,-5,5,-10,2
-11,-17,-4,-3,-1,1,5,4,2
-1,-3,1,-1,-2,0,5,-3,2
-8,-9,-3,-1,-2,-4,-28,-15,2
2,-2,0,1,0,0,-1,19,2
-11,-2,-2,-2,0,0,35,0,2
-15,-5,-3,-3,-3,-2,-16,-31,2
10,-17,-1,2,5,2,3,0,2
-28,-5,-1,-2,-5,-3,16,54,2
5,-2,0,1,-2,-1,-12,4,2
9,-33,4,10,4,3,2,36,2
26,31,1,-3,-1,2,6,-25,2
11,3,0,-3,-1,0,-7,-62,2
-27,-15,-2,-3,2,-4,-4,3,2
-17,12,-3,-1,2,1,-14,-45,2
-36,3,-10,-6,-7,-8,15,11,2
-14,0,-3,-3,-2,-11,-19,-68,2
26,-1,2,2,-3,2,-12,67,2
10,11,1,-1,1,4,39,-26,2
-9,-16,1,0,1,7,-1,48,2
-5,9,-5,-3,-1,0,11,-24,2
1,-4,-6,-6,-5,-5,35,33,2
11,8,1,0,-3,-2,-27,-16,2
7,9,2,2,3,2,-7,-29,2
33,-6,12,10,18,13,-19,53,2
-10,-12,-8,-13,-26,-11,26,52,2
17,22,-4,-2,5,1,9,42,2
2,-12,3,2,-6,3,-52,-50,2
29,1,-2,0,14,17,127,127,2
-52,-28,0,1,5,-3,-118,-104,2
-33,-14,-12,-10,-13,-5,88,83,2
-49,-16,-5,-8,-9,-12,54,-35,2
-23,-3,-7,-3,-6,-9,-60,-93,2
39,8,4,5,4,1,-35,-9,2
-12,11,1,-1,1,1,17,-39,2
8,1,4,5,3,1,-9,57,2
-5,-2,-2,-1,-6,-2,24,32,2
12,25,4,7,8,6,13,21,2
28,-17,6,3,2,2,-47,-22,2
3,25,6,5,9,14,37,49,2
-13,2,-2,-3,-4,-10,-66,-89,2
56,9,-2,-5,-1,3,103,81,2
-85,-1,-17,-13,-20,-29,-38,56,2
14,-9,-8,-8,-11,-13,-7,7,2
13,-7,18,12,7,14,25,38,2
-46,10,-5,-2,1,4,-22,-128,2
22,3,0,1,1,-2,-20,-75,2
-7,-16,8,1,-1,-3,-26,-9,2
-7,18,-7,-5,-2,-1,13,70,2
11,18,10,7,6,5,-16,-26,2
21,5,1,1,1,3,15,13,2
8,18,-4,-1,-2,-3,-28,-30,2
22,13,4,2,2,1,16,-4,2
-53,-16,3,-2,-10,-4,-7,19,2
11,-3,2,0,5,5,2,48,2
-5,7,-5,-4,-6,-4,6,27,2
-3,-7,0,-4,-3,-1,-2,0,2
3,10,-5,3,7,4,3,12,2
-28,-22,4,6,-11,5,23,43,2
6,-11,-3,-2,-23,-8,-58,-12,2
-64,-12,-11,-6,-11,3,52,-51,2
17,6,0,-1,10,-1,-71,-14,2
19,-31,3,4,29,3,-15,-81,2
-2,-4,0,-1,5,2,6,-59,2
3,1,-6,-9,0,4,15,28,2
-8,-25,-1,0,-2,-5,-8,-30,2
10,-6,-3,-7,-13,-9,22,82,2
-19,0,-5,1,5,2,21,-79,2
39,-9,2,4,0,-6,-82,-29,2
21,-2,1,0,-3,2,42,27,2
22,12,3,1,2,1,-15,24,2
-24,-18,3,-1,1,1,20,105,2
-24,-19,-3,-1,-4,-9,5,87,2
31,-19,6,1,0,0,-1,29,2
0,6,-3,3,0,7,-1,-47,2
30,-5,-2,0,3,-2,-4,18,2
16,32,7,7,2,7,16,7,2
-9,-22,-9,-4,-3,-5,-32,28,2
14,-2,3,3,-3,-2,22,80,2
17,10,-9,-9,-5,-8,-9,-29,2
-22,-1,1,-3,-4,-5,-18,-16,2
-34,-16,1,-2,-4,-7,-31,-16,2
49,-1,3,3,7,16,64,62,2
-16,14,-5,-3,3,0,57,47,2
-8,11,-4,1,9,-1,6,63,2
0,-8,0,-1,-8,-2,100,62,2
-18,1,0,-1,-3,-3,-111,-82,2
-1,-21,3,4,2,3,-21,-42,2
18,-8,-1,1,1,0,-6,-22,2
-2,5,10,2,3,2,19,-30,2
-7,-16,-22,-2,0,-5,-9,-89,2
10,4,1,1,3,5,14,19,2
11,-1,7,-1,-5,-5,-14,-24,2
-4,7,4,1,3,4,-29,-58,2
15,-22,5,0,1,3,47,92,2
27,-3,-3,-4,-2,-10,-1,35,2
-33,8,-10,0,-3,-6,-12,-34,2
-12,1,-6,-6,-5,-5,-10,89,2
15,11,9,-1,6,-1,-38,8,2
10,5,3,6,2,17,22,-40,2
-39,-28,2,0,-3,0,-12,19,2
-12,25,-8,0,3,0,26,-94,2
-55,-20,-9,-9,-10,-10,20,-9,2
5,3,-1,-1,3,-10,-79,-26,2
14,15,3,-3,-10,3,2,-23,2
-16,-4,-3,-1,0,4,-19,-61,2
9,14,1,-3,-3,1,63,-66,2
-20,-2,3,-1,-1,0,-49,-30,2
9,-2,1,-1,3,-3,12,17,2
22,2,-4,0,0,-3,-20,0,2
-13,11,4,2,-3,1,-4,-18,2
-24,-3,0,2,5,2,-3,-14,2
19,8,-3,-2,0,2,6,33,2
20,7,-2,-3,-3,-1,5,80,2
-15,-4,-1,-1,2,-1,-25,-44,2
-12,10,3,0,-3,3,6,-14,2
-11,-3,-2,1,9,-2,-1,-16,2
-32,-9,-5,-4,-6,-1,13,-90,2
12,22,3,2,2,-6,-46,12,2
9,14,-1,1,2,4,-25,8,2
-8,-4,-6,-4,-5,-7,34,3,2
41,10,1,2,4,4,-22,127,2
24,7,3,4,10,-1,-1,8,2
24,30,-2,-1,0,-3,29,123,2
0,4,-2,-2,-8,0,-48,-60,2
-32,3,2,2,4,2,-24,59,2
-26,-14,-6,-7,-9,-1,69,13,2
0,-22,2,-3,-3,-2,-7,-49,2
-4,-11,2,6,6,3,23,30,2
7,1,3,3,6,-1,-52,-61,2
-21,22,-3,-7,-19,1,26,-23,2
-34,-10,-3,-2,-3,-2,18,-4,2
16,8,17,0,-2,-6,-22,41,2
3,12,-21,-4,-8,-3,18,-17,2
-17,-8,0,1,6,-1,-27,-45,2
-21,-21,-7,-3,-5,-7,10,48,2
-17,8,-1,-3,-3,-2,-5,-19,2
-2,-31,8,1,-1,-2,19,-8,2
9,-21,3,-2,-2,-2,1,118,2
5,-43,-2,1,2,3,-34,-46,2
58,25,-8,-1,2,-2,-11,62,2
24,-5,5,1,0,8,43,-8,2
-61,-27,-15,-10,-11,-15,-65,-108,2
14,-10,5,2,-1,2,35,12,2
0,-11,-3,8,8,2,-2,-56,2
-3,-4,0,-11,-7,1,34,34,2
30,3,7,11,9,7,12,27,2
-2,10,1,-2,-2,2,-12,27,2
-29,-11,-8,-6,-5,-5,21,-42,2
4,14,2,4,5,-2,-29,-52,2
-5,-5,2,0,0,5,-19,-3,2
0,8,-5,-6,-5,-6,49,33,2
3,3,-3,-4,0,3,31,-15,2
-11,0,-1,-2,1,-6,-32,-33,2
10,12,5,1,4,4,5,-19,2
-12,6,-4,-2,-1,2,25,8,2
-13,-12,2,-3,-6,-6,-44,-28,2
42,5,3,5,5,3,28,113,2
-25,10,-5,-10,-12,-2,18,6,2
13,0,8,5,5,5,-15,-16,2
-10,-9,-11,-8,-2,-10,15,5,2
5,6,-2,1,-3,0,13,20,2
-7,-14,-3,0,-2,-6,-67,-73,2
13,16,3,1,-1,1,4,12,2
5,10,-2,-3,-3,4,-7,9,2
-14,0,-2,1,0,-2,-10,-12,2
21,-1,2,1,3,4,36,41,2
-8,14,-6,-2,1,-8,-12,-66,2
9,-8,-1,-3,-10,0,-40,-30,2
-3,-22,0,1,-1,0,17,3,2
10,2,-4,-2,-3,-3,-3,21,2
-35,-6,-2,-1,6,-1,19,14,2
-20,-8,3,5,4,4,1,-9,2
-32,-36,-8,-11,-16,-4,15,-41,2
50,12,0,-4,-8,-13,-82,12,2
-6,19,2,2,3,-1,-6,19,2
14,36,3,4,5,8,25,49,2
-2,0,-2,-1,3,-4,-42,-61,2
2,3,1,3,6,5,42,96,2
10,1,-5,-2,-5,0,-21,-24,2
2,3,1,0,3,1,9,12,2
-5,-3,1,3,0,4,6,5,2
-11,3,-1,2,1,3,10,14,2
2,-9,5,1,2,-1,-17,-5,2
-34,2,-10,-11,-11,-12,4,-32,2
-2,-9,-1,-1,6,-2,-9,-22,2
-12,-12,2,-2,-4,0,12,81,2
-1,5,-5,-3,-3,-2,-6,-19,2
59,-10,4,4,2,6,18,47,2
-14,-20,-1,0,2,0,28,-71,2
15,13,2,-1,-7,2,-12,1,2
14,6,1,1,0,-2,9,53,2
-8,-5,1,-4,-2,-2,0,61,2
-18,-25,3,2,-1,-2,-16,36,2
6,-14,3,4,5,2,-2,-11,2
5,-21,1,1,-1,3,23,15,2
21,-4,-2,-1,-1,0,11,-56,2
11,-16,1,0,-2,-4,-35,-28,2
-25,4,3,1,6,5,28,-27,2
-16,9,-4,-3,-8,-5,-18,-28,2
25,-12,1,1,2,0,5,-16,2
17,14,1,-1,0,-2,-5,20,2
-5,-6,-3,1,1,1,-8,-62,2
0,-9,-4,-1,1,3,13,33,2
-12,-8,8,4,5,6,2,22,2
-15,15,-20,-9,-6,-10,-20,-1,2
-13,1,-3,-3,-2,-4,-17,7,2
44,9,5,1,5,3,-10,-43,2
-41,-7,-7,-3,-8,-10,-22,13,2
15,-10,5,1,3,7,43,127,2
12,4,-2,-6,3,-10,-24,-51,2
2,3,-4,-7,-11,-2,-22,37,2
1,-24,0,-1,-2,4,45,-20,2
-7,-15,8,3,-1,-1,-58,-30,2
21,-15,-7,-4,3,1,-6,-10,2
-14,-24,-5,-1,1,-2,22,26,2
-6,2,-3,-2,0,-4,11,-3,2
-23,-15,0,-3,-5,-5,8,-28,2
5,-22,3,3,-4,-3,9,8,2
22,-5,-2,0,2,0,-15,-4,2
-15,-7,-5,-4,-3,-3,-34,-48,2
25,-22,2,1,1,3,5,8,2
-47,-16,0,-2,-2,-1,-4,-10,2
-22,-19,0,1,1,1,-18,-84,2
24,6,2,3,3,2,4,31,2
1,-1,3,4,6,1,-7,26,2
-5,5,-2,-7,-10,3,39,27,2
9,2,6,2,2,5,-10,-58,2
-35,-9,-5,0,3,-5,-14,-56,2
6,20,-2,-5,-5,-3,7,20,2
41,-1,1,2,1,-2,0,33,2
6,27,2,3,2,3,-31,-24,2
8,-6,-3,0,0,0,101,25,2
-12,-3,-8,-3,-6,-14,-85,-9,2
11,-2,3,4,5,6,16,26,2
-31,7,-6,-6,-9,-12,-19,-92,2
15,17,3,3,5,6,15,56,2
-23,5,1,-1,0,-2,25,17,2
-1,-1,-1,1,2,-2,-15,-16,2
-5,11,3,2,5,5,20,48,2
3,14,-3,-4,-3,1,12,16,2
14,0,-4,-7,-12,-7,-39,-39,2
18,4,-3,2,7,0,-9,-16,2
-15,-1,-5,-4,-9,-3,30,30,2
4,21,-1,-3,-2,0,-44,-14,2
-13,19,-1,0,4,6,38,24,2
2,4,1,2,9,0,11,-1,2
-37,0,-3,0,-7,-1,1,17,2
-5,12,2,5,8,-1,-25,9,2
6,10,0,-1,0,4,22,7,2
-9,-1,-6,-6,4,-6,-9,-24,2
74,18,7,7,7,11,31,117,2
-36,-10,-9,-7,-10,-17,-66,-63,2
15,0,0,-2,-3,6,64,39,2
-17,22,1,1,0,-2,-52,-80,2
10,-12,-1,-3,2,3,61,30,2
9,8,1,-3,-2,-1,6,97,2
-8,11,1,2,6,2,4,-4,2
9,-10,2,1,-2,3,13,56,2
-3,13,-2,-1,-5,-2,-34,-57,2
11,5,0,0,-2,2,7,71,2
2,-1,4,5,2,4,-27,-90,2
-79,-3,-6,-4,-10,-8,58,-16,2
-20,2,-3,-2,0,-2,1,14,2
8,3,6,4,10,6,-19,-118,2
-34,3,-1,-1,-4,4,8,-3,2
4,6,-1,-2,-4,-1,30,39,2
9,-15,1,4,6,-8,-39,37,2
-6,-1,0,-9,-7,-5,-17,12,2
8,0,-5,1,6,3,5,-34,2
-1,-3,-1,0,-3,1,-23,-86,2
-15,-12,-1,-2,-1,-2,11,-55,2
16,-28,1,0,2,6,5,42,2
7,-9,-3,-2,2,-9,6,-40,2
-5,-1,-1,0,-8,-5,-41,10,2
19,-16,3,-1,-6,-1,6,-14,2
2,-26,0,3,1,1,-15,-34,2
-8,0,-4,-7,-4,-1,8,12,2
29,4,-1,-3,-3,1,3,26,2
-17,0,-2,-5,-3,-2,-15,-37,2
-2,-22,0,0,-2,2,-4,4,2
-31,-9,0,2,1,-2,-2,7,2
37,10,5,3,10,9,19,98,2
-17,-10,-13,-11,-10,-14,-45,-4,2
17,1,-4,-3,-6,-3,24,66,2
27,6,-2,0,3,-4,66,117,2
18,-18,1,1,2,2,-8,80,2
7,1,-1,4,13,3,25,48,2
33,27,1,0,-4,-3,-8,-12,2
6,-18,3,3,-3,0,-3,51,2
-7,-5,0,3,4,2,0,-68,2
1,-7,2,-1,-1,3,12,8,2
-23,0,-4,-2,-1,-2,-4,-30,2
11,-4,3,-1,1,2,-30,-74,2
-21,-11,-2,2,0,-1,-5,-11,2
-9,-11,-3,0,-5,-8,32,18,2
32,38,6,6,7,9,27,6,2
17,7,-5,-7,-7,-8,-16,52,2
-10,-3,-2,0,-3,-1,-8,-90,2
-4,15,-3,-4,0,-6,-23,2,2
-19,-1,-3,-4,-8,-2,35,35,2
0,-3,1,3,2,-1,-18,6,2
8,-5,-2,-1,0,1,6,15,2
21,5,6,3,3,5,-10,25,2
-22,9,-2,0,10,-3,-2,-90,2
-6,0,0,-1,-5,2,21,30,2
-45,-13,-3,-7,-11,-12,-57,-104,2
-17,-3,0,1,-5,6,33,-9,2
-19,9,1,1,3,-2,8,55,2
23,10,-3,-2,-5,-7,-20,22,2
7,6,2,1,0,4,17,33,2
-5,10,-1,-3,1,0,-2,-27,2
7,-1,0,0,-5,4,-25,-18,2
29,3,3,1,5,-2,12,31,2
12,21,-1,0,-1,-3,21,5,2
11,1,0,1,1,3,-13,14,2
-53,-7,-5,-1,-1,-4,-2,-6,2
15,10,2,1,1,2,-20,-40,2
28,3,2,0,2,6,-6,-45,2
9,12,3,1,2,1,71,41,2
58,24,6,6,4,0,-10,-10,2
-10,7,-1,1,6,2,-7,-1,2
-32,11,-3,-5,-3,-5,-6,-7,2
-26,0,-4,-5,-3,-1,-30,-7,2
12,-25,10,5,5,7,24,26,2
-37,-2,4,6,-2,2,-14,-82,2
-24,8,-4,-6,-2,-2,2,36,2
26,-7,1,3,5,1,-9,-1,2
-21,-19,-2,-5,-18,-5,-28,-39,2
11,4,-2,-2,-2,3,43,91,2
-10,0,-6,-4,1,-4,-22,-24,2
9,8,4,2,-2,2,-2,-6,2
-15,6,-6,2,4,-6,-1,-67,2
-7,-4,-5,-2,-3,1,-22,-116,2
9,9,-1,1,-3,0,24,1,2
23,-2,3,7,7,5,-8,-11,2
3,1,-1,-3,0,2,-1,24,2
42,12,1,0,3,9,14,-45,2
-18,16,-2,-7,-11,-4,-7,-6,2
-25,2,-10,-8,-5,-11,17,-56,2
-27,8,-3,-4,-1,-2,-72,-85,2
3,6,6,5,4,7,-2,16,2
45,-27,5,6,6,11,22,29,2
-48,-10,-11,-8,-7,-12,6,2,2
9,5,7,3,-5,1,26,-5,2
0,-2,-5,-1,4,-10,-10,0,2
24,-1,-8,3,0,7,3,63,2
-15,0,-1,-7,-5,2,-52,-68,2
7,-2,-5,-1,-3,-6,44,114,2
-22,-4,5,1,6,-7,-79,-44,2
5,-3,6,1,0,0,15,-23,2
45,8,8,7,5,9,-2,44,2
-48,-7,-14,-10,-9,-11,-12,-26,2
-9,11,-7,-8,-8,-9,13,84,2
7,6,-1,0,-1,-1,-8,-15,2
-24,-21,0,-1,-3,2,17,84,2
27,-6,3,7,6,5,-17,-50,2
-8,13,-7,-5,5,-2,-36,-5,2
-11,2,-1,-4,-4,-7,26,19,2
19,4,4,5,1,1,-38,-38,2
-2,8,-2,-1,5,2,-12,20,2
5,-12,4,2,0,4,92,23,2
4,-16,2,-1,0,-4,-42,19,2
18,5,3,-1,3,6,36,-6,2
-16,-22,-6,-6,-7,-4,-19,-4,2
-11,-21,-3,-2,-4,2,1,75,2
13,-7,6,5,7,8,10,-37,2
-37,-9,-5,-5,-7,-11,-13,-38,2
-14,-11,-1,-1,2,-1,-22,-39,2
-33,-25,-4,-3,-7,-3,23,-7,2
-12,-13,-4,-2,1,-4,-9,-2,2
-50,-3,0,1,0,2,-7,-25,2
2,-21,10,8,13,8,24,4,2
17,-8,-2,-2,-9,4,33,29,2
-8,-4,-2,2,3,-7,-38,-31,2
29,1,6,6,0,5,18,47,2
12,-13,-8,-5,1,4,27,-12,2
7,-5,6,2,4,3,-5,47,2
-14,-2,-14,-6,-9,-6,65,-31,2
25,-20,12,3,3,-2,-28,19,2
-9,13,-5,-1,-6,-2,-15,-18,2
3,-9,-18,0,-1,-2,-19,-23,2
-12,-12,-14,-8,-2,-3,10,76,2
-54,-13,-2,-3,0,0,-41,-111,2
35,15,14,8,10,16,-77,-84,2
-32,14,-3,-8,-13,-10,52,7,2
-24,-9,-4,-1,-3,-8,-48,64,2
38,-3,-7,-7,-12,-9,0,9,2
12,7,6,3,5,4,-3,52,2
-8,-2,1,1,2,5,-6,-121,2
-2,-19,6,1,2,2,20,-9,2
25,3,0,3,6,10,39,-44,2
-17,16,-3,-2,-6,-8,5,51,2
-17,0,-6,-9,-7,-10,-30,-79,2
20,13,1,2,2,-10,-44,17,2
-4,-5,-3,-3,-2,3,37,-8,2
25,-10,-2,-2,-2,-3,-32,39,2
14,9,0,7,7,5,-11,-12,2
17,23,6,2,3,6,20,28,2
1,-6,-6,-2,1,-5,-13,36,2
-2,16,-3,-3,-7,-4,26,2,2
-5,-1,2,-1,-1,1,-19,13,2
31,-12,6,2,3,9,22,35,2
-14,20,-13,-10,-12,-16,18,107,2
-15,-16,-3,-3,-4,-4,28,13,2
6,-11,5,1,7,0,-3,107,2
-16,6,1,0,-2,8,-11,-104,2
16,4,3,6,4,3,41,102,2
1,-16,-5,-5,-10,-4,15,9,2
-9,11,4,0,8,6,1,-49,2
-38,-7,-20,-19,-24,-29,30,44,2
-6,-10,-1,-2,-1,0,2,-17,2
-6,0,-2,-3,0,2,-2,-24,2
28,3,4,5,1,3,-24,-10,2
39,-9,8,6,6,10,19,-16,2
-42,15,-6,-4,2,-6,-76,-97,2
-5,4,-4,-2,-2,-9,4,0,2
-17,-5,0,0,-2,1,8,-55,2
5,4,1,-1,2,-3,-59,-49,2
31,12,7,9,10,12,17,11,2
-32,-26,-13,-9,-10,-14,-7,-100,2
-4,0,-3,-5,3,-12,-65,-34,2
-14,17,3,0,-3,6,46,105,2
1,-1,-2,-1,-2,-4,-7,-6,2
30,5,7,3,4,9,20,63,2
45,2,-1,-3,1,2,66,-5,2
-2,17,9,9,12,13,-91,-109,2
-14,2,-5,-7,-4,-5,44,-70,2
-4,4,0,2,5,-1,8,35,2
-5,17,-5,-7,-14,-12,-65,52,2
15,1,4,4,7,5,-13,-30,2
3,5,3,3,2,5,-21,7,2
-30,-2,-2,-1,0,-1,13,21,2
4,-9,2,1,-3,2,20,0,2
8,-5,0,1,1,4,18,-25,2
37,13,-3,-1,1,-3,-15,69,2
-11,-7,11,-2,-5,-7,4,-47,2
-4,-19,-11,3,-1,2,-20,-9,2
-15,13,-36,-10,-5,-6,34,22,2
25,-19,0,2,0,2,-1,-42,2
11,-3,-1,6,7,11,-25,56,2
-31,-6,13,1,2,3,67,51,2
-5,-7,6,0,6,-5,45,29,2
-20,-12,-9,-10,-16,-6,-40,-18,2
20,-2,1,-6,-2,-1,75,105,2
-27,-18,-3,1,9,-6,-84,-117,2
5,-14,-2,-5,-5,-5,56,30,2
-41,-2,5,3,5,3,0,-14,2
19,-22,4,6,6,8,-24,-85,2
-2,17,-5,-5,-9,-9,15,39,2
-1,-3,1,-2,-2,0,-10,-13,2
5,-6,7,1,1,-5,-34,10,2
-15,-5,-2,0,2,0,-7,-42,2
9,5,-4,0,-2,2,15,-27,2
-22,-9,7,4,-1,0,-23,-6,2
31,8,-4,-2,-4,1,13,85,2
5,1,-4,-2,2,2,9,-11,2
6,8,-3,-1,-4,-3,-14,4,2
13,8,6,2,1,1,12,39,2
-16,-32,-3,-3,1,-2,16,-35,2
-2,5,-6,-3,-6,-7,-16,27,2
33,7,2,-2,-4,3,21,39,2
-18,-17,6,1,-5,-2,-20,-6,2
28,-13,-3,1,4,0,-18,71,2
-6,12,2,-3,8,1,39,1,2
-6,-30,-10,-7,-14,-3,74,22,2
-9,1,-1,-1,0,-6,-28,-19,2
-6,-10,4,1,0,-2,-1,-5,2
-5,-3,1,4,-1,2,14,12,2
1,5,5,5,7,6,-24,-81,2
10,-4,2,0,3,3,-33,-8,2
-29,9,-12,-8,-12,-17,43,-32,2
15,11,0,0,-2,2,-12,-47,2
-28,3,-4,-6,-6,-11,-10,-58,2
-3,4,0,-3,-3,-6,-80,7,2
18,25,5,7,9,8,-7,-13,2
6,-3,-4,-4,-4,-3,9,44,2
0,-3,1,-1,-1,4,-15,25,2
7,5,-2,0,1,-2,30,-19,2
-22,-6,-1,3,14,3,13,-26,2
4,10,-1,1,-4,-1,-34,64,2
-34,8,2,2,1,-1,36,22,2
-8,-14,-3,-4,-7,0,16,3,2
12,17,3,2,3,3,19,49,2
-49,-12,-2,-3,-3,-5,-31,2,2
19,5,7,1,3,6,18,38,2
26,2,-3,2,2,2,-5,-82,2
-17,1,8,-9,-12,-8,-2,71,2
7,-1,-6,3,0,-1,0,-39,2
14,-5,-4,-3,0,3,27,38,2
28,7,5,-4,2,2,2,38,2
-37,-8,6,2,1,1,-6,-102,2
10,18,-5,-7,-16,-7,-46,60,2
0,3,3,1,1,-2,-67,-48,2
-72,5,0,-4,1,-3,32,-3,2
11,8,-11,-5,-6,-4,3,87,2
14,-10,4,2,6,5,17,-3,2
6,5,-4,0,-1,0,-8,33,2
8,0,-1,-2,-2,0,19,-17,2
-1,-9,-2,2,1,5,-19,-62,2
-17,1,-3,-2,-1,-3,0,-41,2
8,1,2,-3,-8,2,29,-9,2
-7,-22,-5,-2,-4,-6,-7,75,2
10,-11,3,2,2,9,15,-17,2
11,18,-2,-2,-3,-11,-58,-70,2
-26,-3,-6,0,2,0,18,-7,2
-8,1,-6,-5,-6,-4,11,-3,2
17,4,0,3,1,5,-52,-128,2
16,-4,-1,0,-1,-1,79,83,2
-7,-4,3,4,5,3,-22,4,2
-19,7,19,-1,-10,2,38,46,2
25,-30,-16,-1,-2,-5,1,127,2
-21,-13,-3,1,0,-3,-26,-102,2
13,0,4,-4,2,2,1,8,2
14,-11,7,0,-2,6,25,-2,2
-7,-32,-2,-1,-6,1,18,0,2
-9,-12,2,4,0,-1,24,51,2
11,-23,-3,0,5,-3,-9,-45,2
9,-2,-1,-1,-3,-2,-34,-58,2
-21,0,-2,-5,-2,-3,-16,-63,2
5,-22,0,0,3,6,28,44,2
19,11,6,2,-1,-4,-53,-13,2
2,-4,-10,0,1,-4,1,69,2
13,-2,-1,-1,-3,-4,41,100,2
-4,-18,-3,-6,-3,-1,-2,24,2
6,3,1,4,4,4,25,33,2
-6,-27,-5,1,1,4,-25,-5,2
3,12,2,-1,-2,-2,-2,6,2
-25,3,-1,-1,-3,-6,-29,71,2
39,21,-3,-1,-2,3,12,65,2
-27,-4,-10,-3,-4,-9,-15,-78,2
-2,19,11,4,4,0,-12,-43,2
12,6,4,0,0,1,-2,-81,2
-20,-20,-10,0,-1,1,-3,-35,2
13,15,4,8,5,1,-17,5,2
10,10,-7,-1,20,0,9,66,2
-8,7,8,-1,-10,2,0,-26,2
-47,-12,-25,-8,-9,-8,1,-51,2
14,5,-1,3,1,0,0,-10,2
-2,8,2,0,3,3,11,-69,2
0,-7,-2,0,1,-4,-65,6,2
16,3,13,7,10,12,-3,-28,2
-14,3,-4,-7,-2,-7,49,6,2
-21,9,-3,-3,-8,-7,-38,-71,2
32,4,18,7,6,10,57,54,2
0,-21,-15,-3,0,0,-60,-55,2
-16,3,-5,-3,-2,-3,-9,97,2
-8,12,7,4,-3,2,-12,16,2
-13,-12,-5,0,2,-3,16,22,2
8,6,2,-1,4,-5,14,104,2
29,18,-2,-10,-17,1,21,-16,2
-17,-4,-1,3,2,-1,-6,-39,2
-4,14,-2,-3,-5,3,-5,-42,2
-64,1,1,-2,-10,-7,-3,-54,2
21,5,2,6,9,6,7,14,2
-12,12,-1,-2,-3,-2,-14,-15,2
30,7,-1,1,5,5,0,-6,2
10,2,10,1,-1,-6,-7,16,2
2,-12,2,2,4,7,7,-75,2
3,-19,-2,-2,-5,0,20,-10,2
-4,-5,-7,-2,-3,-9,-16,55,2
-9,16,-2,-3,-8,-10,-61,-76,2
-9,6,-2,-1,1,-5,-7,23,2
32,-23,-4,-5,-6,-3,-9,-34,2
-44,-3,-7,-5,-1,-1,47,-67,2
5,4,1,-4,-4,-7,-48,-11,2
-10,-4,0,0,3,-2,-32,-43,2
17,-2,1,7,5,1,-9,4,2
5,0,-1,-1,-10,5,29,-15,2
7,-3,0,3,0,3,34,-4,2
10,-5,-1,0,7,-3,-30,-40,2
-8,-17,-2,-7,-9,4,44,-11,2
9,9,-5,-3,1,-3,2,22,2
26,1,4,-1,0,1,-20,21,2
34,-9,0,0,-2,0,21,-4,2
15,8,5,2,3,4,9,36,2
-42,-13,-4,0,1,-1,-35,-93,2
-3,-21,-7,-5,-2,1,63,72,2
-32,-12,-1,-3,-2,-5,-15,-82,2
-11,-3,-2,-2,-2,-6,-67,-30,2
40,11,1,-1,-3,-3,-3,-33,2
-10,-3,-9,0,0,-3,53,89,2
-38,-13,-5,-5,-14,-4,0,-67,2
21,3,4,3,5,2,-27,10,2
-7,-9,-2,-3,0,-2,-2,43,2
18,-16,3,0,1,2,12,-1,2
-17,-9,0,-1,0,-2,-7,45,2
0,4,-2,-1,-2,0,6,1,2
-5,0,-3,1,-3,-4,-12,-10,2
9,-10,5,1,8,3,7,26,2
-2,-6,2,2,0,4,-20,-17,2
-20,-10,-2,-5,-6,-5,-9,53,2
-5,-19,-6,1,4,0,70,77,2
-1,-3,5,1,-1,2,-4,-25,2
1,8,-4,-5,-9,0,12,104,2
-12,-7,0,-1,-5,-4,7,-43,2
-7,-2,2,2,3,3,-3,-15,2
37,23,3,4,3,6,13,-15,2
27,-12,-2,2,4,5,30,119,2
-27,4,-5,-5,-3,-9,4,-32,2
-28,-10,-4,-3,-3,-5,-13,10,2
-9,12,2,2,-1,0,15,7,2
17,-1,5,4,5,0,-17,11,2
-8,2,-1,0,2,4,17,-39,2
26,-7,22,3,3,1,-20,5,2
-16,-16,-30,-4,2,-3,-39,-35,2
-2,5,-9,-1,-2,-2,99,86,2
8,-6,2,0,2,-1,-18,-25,2
0,11,-6,0,-4,-5,-32,-94,2
-17,-7,9,-1,3,0,-18,-12,2
33,9,12,4,3,3,-8,24,2
13,-23,-19,0,-4,6,-4,-18,2
16,16,3,-3,2,3,26,12,2
8,3,5,1,-2,-2,26,-3,2
34,18,-1,0,3,-1,-53,-63,2
-26,1,2,-2,-2,-6,33,116,2
22,11,3,1,-2,1,-32,-6,2
-11,-7,-2,-3,-7,-2,18,44,2
-5,14,2,1,3,4,-6,-58,2
33,12,6,3,1,3,37,89,2
9,-3,-5,-1,2,2,-26,50,2
-15,6,-2,-5,-6,-7,-1,-60,2
-34,3,-4,-1,-5,-5,-6,69,2
-17,8,-2,-2,1,0,-6,-6,2
1,0,-6,-1,0,-4,2,-24,2
-6,8,5,5,4,2,-26,-12,2
-7,-13,-1,0,-1,-2,2,-20,2
-30,-17,-1,-7,-8,-1,17,-60,2
28,25,-3,-9,-7,-1,-33,53,2
-6,-3,-2,-7,-9,-9,5,30,2
-7,-1,-2,0,-2,-1,32,-64,2
1,17,0,2,3,1,-15,-34,2
15,1,1,3,5,1,7,33,2
-3,-2,2,-2,-2,-4,-13,19,2
-5,15,-6,-3,4,2,10,-7,2
1,-11,-2,1,-1,-1,-9,24,2
-7,-4,2,1,2,3,16,-56,2
8,2,-2,0,0,0,-31,-8,2
-21,-12,3,-1,-4,-4,-13,17,2
-11,7,-4,1,-1,-2,18,42,2
0,-11,-3,0,0,4,9,-54,2
20,13,2,0,-7,-1,-29,27,2
14,-10,0,-1,1,-5,2,59,2
8,-21,2,0,0,0,-13,-44,2
-13,-3,-2,2,-1,-2,12,-39,2
1,8,1,1,1,1,0,-8,2
-11,-8,3,3,5,3,-2,3,2
12,-3,-2,-3,-2,-2,-2,27,2
-34,-10,-1,-1,3,-4,-1,-19,2
-19,-14,-9,0,0,0,11,7,2
-7,-7,-7,0,-4,-3,-43,-33,2
15,-11,8,3,0,1,10,4,2
-20,-21,15,-1,2,-2,10,20,2
10,3,-14,-1,2,3,-8,-25,2
-62,1,-5,-3,-4,-4,8,-69,2
-2,6,-5,0,-1,-1,15,36,2
12,5,-3,-5,-5,1,-4,44,2
-7,-4,6,5,2,4,8,-29,2
-24,-9,-3,-4,2,-5,-24,-82,2
-11,-12,1,-1,-1,4,-3,34,2
17,-10,-1,0,-2,-1,29,68,2
-57,-17,-3,-5,-3,-10,-6,12,2
8,-1,-5,-10,-13,-3,7,29,2
1,-20,6,3,5,9,42,94,2
-1,-9,-7,-4,-10,-15,-66,-49,2
31,-4,3,0,4,6,27,17,2
4,-17,6,5,7,4,-15,-2,2
-14,-5,-6,-2,3,1,1,-24,2
7,-7,-3,-1,-4,4,-1,46,2
0,-10,1,0,-3,-2,-8,-32,2
7,-12,1,1,4,-1,35,50,2
22,5,1,-3,-10,-3,-29,-22,2
2,-6,-3,-1,4,-2,-30,51,2
35,-5,5,3,3,4,50,58,2
-28,12,-6,-5,-7,-17,-62,-17,2
33,3,2,-5,-6,-2,-13,-48,2
-24,25,-3,2,0,-2,17,-29,2
10,5,4,2,0,0,-21,-30,2
47,-3,8,4,5,15,60,83,2
-9,4,-3,-1,-1,-12,-25,14,2
-2,-2,-2,-1,-2,-1,6,-42,2
-39,9,0,0,2,2,4,-17,2
10,0,-1,2,0,3,29,3,2
1,0,-1,0,2,-5,-66,-54,2
1,5,2,-1,1,1,-2,-69,2
3,7,0,1,4,-1,11,57,2
7,0,0,-6,-6,2,13,-10,2
5,3,1,0,1,0,7,47,2
10,5,2,7,4,1,-4,17,2
-3,-3,1,-4,-3,1,-22,13,2
3,11,-1,-2,-3,-2,-20,-34,2
-14,1,-1,-1,-6,2,24,-25,2
1,-5,1,2,3,2,-6,-39,2
14,0,2,-2,1,1,-6,16,2
-19,8,-1,-2,-4,-11,6,23,2
