0,-3,0,0,-2,7,75,13,3
-15,-3,0,16,-2,-3,6,-4,3
23,5,3,-12,2,4,-15,-2,3
3,3,0,-8,4,-1,-52,-4,3
-3,0,-2,0,-2,-5,-29,-3,3
-19,3,-2,-19,-7,2,5,-4,3
1,11,2,5,-3,-1,-18,29,3
37,-1,12,59,10,-8,-30,-29,3
28,5,7,23,5,1,-5,-16,3
43,6,-11,-51,-6,-3,-4,-2,3
-37,-13,-10,-1,5,6,53,-4,3
21,8,4,32,-7,-7,-91,31,3
-55,0,51,36,6,-14,56,-27,3
4,-19,-14,-76,-38,-7,1,14,3
-7,-3,-24,8,-13,1,-10,3,3
2,-1,-13,-21,2,16,95,-24,3
-39,-7,2,68,-8,-31,-90,0,3
-45,3,19,65,23,2,45,-3,3
52,-6,0,-18,-10,-16,16,-43,3
-38,3,14,1,7,18,30,16,3
31,14,-10,-27,6,-4,-7,43,3
25,-5,-1,3,7,25,-6,0,3
-20,-7,-4,-7,-3,-27,-29,5,3
-24,-6,-11,-11,-7,-2,-34,-33,3
-15,4,-8,-19,-1,-1,-71,30,3
37,7,-11,-4,-12,-8,74,-17,3
-9,-4,3,12,-3,4,-39,29,3
33,6,4,-15,2,6,42,33,3
80,4,-9,-41,5,22,21,-24,3
-57,5,8,20,10,3,-44,59,3
-88,-13,7,22,-3,6,95,67,3
-12,-8,22,25,10,-12,-34,6,3
35,-20,-47,-37,-16,3,-15,-63,3
34,1,10,39,15,3,12,-30,3
-29,1,-19,-87,-9,2,6,8,3
39,1,-8,14,-7,-5,3,-18,3
-70,-2,12,23,2,13,59,13,3
-14,-6,1,22,2,-10,-26,-9,3
-26,-2,7,35,4,1,-34,-20,3
-87,-13,-6,-20,-13,-12,-27,-1,3
1,0,-1,5,0,4,7,24,3
55,11,7,1,8,16,60,-58,3
40,1,4,-6,-15,-35,-73,-10,3
-9,-14,-27,-49,-8,7,28,17,3
-43,-2,0,-4,4,8,32,28,3
-19,5,7,30,-1,-11,29,-11,3
-54,-8,2,38,8,9,-27,-2,3
17,-4,-4,-8,12,5,32,-7,3
-30,-12,-22,-60,-17,-5,13,26,3
-29,-1,-1,-6,11,11,-3,35,3
53,18,12,10,2,5,-3,-31,3
-56,-1,13,43,-2,-10,-31,14,3
-42,2,1,-33,1,8,21,31,3
-14,0,11,47,3,-11,-38,-11,3
-18,-12,-26,-94,-15,5,11,-10,3
-27,-8,-7,3,-5,-4,-5,-23,3
65,0,14,27,15,13,57,-53,3
42,-11,-10,-8,-8,-10,15,-2,3
-52,-1,27,39,-1,0,122,3,3
-28,4,-19,-36,-9,16,84,-4,3
-9,-3,-6,29,-1,-1,16,-26,3
-37,-8,-17,-27,-20,-22,-5,33,3
51,14,17,49,23,31,58,-14,3
-29,-5,-4,-15,-9,-19,-92,-6,3
-48,11,9,20,18,3,20,65,3
49,4,-6,-4,-6,-9,-81,-46,3
-23,-1,-2,-15,1,3,-31,-22,3
-58,3,16,30,5,-1,31,-7,3
18,8,-6,-41,-9,0,-32,1,3
-79,-6,-8,-18,5,5,-29,8,3
80,6,9,53,0,-10,-20,-12,3
56,22,72,50,24,2,-31,-43,3
-64,-20,-64,-52,-36,-3,11,37,3
-88,-4,-19,-28,-8,5,24,39,3
8,0,-33,-34,-11,7,4,22,3
57,7,13,52,3,13,74,-9,3
-66,7,24,7,1,-15,-127,11,3
10,-27,-26,25,-19,-13,65,-39,3
84,16,11,43,30,-5,-87,-58,3
-17,10,-13,-25,-3,12,30,9,3
-13,4,21,50,17,9,-40,7,3
85,8,6,-30,1,5,81,-3,3
-19,-16,-2,-8,-20,-44,7,-22,3
10,-16,-31,-20,-23,2,73,11,3
45,11,8,1,-7,8,2,-45,3
2,16,29,29,28,32,37,0,3
-98,-23,-15,-24,-11,-5,33,48,3
65,-2,-7,-1,5,2,33,2,3
15,-10,-12,-21,-4,-3,90,-20,3
-18,11,21,34,8,-14,-66,-7,3
-28,18,66,124,17,10,79,-21,3
-94,-1,-59,-119,-19,-7,-111,39,3
-12,-14,-55,-25,-34,-7,-16,4,3
-87,-8,5,78,-4,-2,-48,56,3
33,11,-2,55,15,13,-41,9,3
-34,-4,41,97,11,-16,-53,3,3
39,11,41,34,16,-3,-33,-45,3
-63,-6,-6,-76,-15,-14,-50,0,3
-14,-9,-7,-39,-5,4,-54,-16,3
7,4,-1,-29,3,0,-14,17,3
-36,0,3,-4,1,9,71,22,3
-64,-3,-11,-26,-17,-52,12,38,3
72,5,-4,-19,6,30,38,-30,3
2,1,-6,1,5,-7,-79,-3,3
-53,-5,6,14,-9,-5,14,-18,3
-2,3,10,29,20,19,10,3,3
18,3,-4,-35,-13,-28,6,11,3
10,12,24,84,8,12,60,-25,3
-32,16,22,19,9,4,21,33,3
-4,2,-21,-90,-8,1,15,3,3
34,-35,-90,-91,-36,2,-44,7,3
-8,-45,-45,71,-15,-5,38,-29,3
9,-24,-5,120,-5,-14,49,-4,3
82,24,41,85,16,7,19,-45,3
37,23,27,13,4,2,98,-36,3
-2,19,24,-32,7,0,-34,2,3
27,18,39,-14,19,7,53,-15,3
-35,-18,-34,-30,-5,9,17,1,3
-121,-6,-4,-1,-5,-9,-53,53,3
35,-2,-1,-11,-8,-2,-6,-36,3
50,3,-13,-54,5,-7,-41,-17,3
-75,-10,-8,-3,2,41,20,51,3
-75,9,22,4,21,-5,-56,72,3
25,10,26,77,-3,-10,98,-12,3
16,-4,-2,-98,-30,6,-6,16,3
-20,-28,-55,105,3,-23,-54,-32,3
12,-4,-33,-80,32,49,-30,30,3
54,5,9,19,10,-23,-10,-23,3
18,-3,9,22,-6,-4,-68,-28,3
121,25,102,83,-3,-1,25,-101,3
-12,-13,-79,-38,-33,-21,-14,32,3
31,-12,-18,3,-12,-12,-39,-16,3
4,1,-7,40,12,14,-52,-3,3
49,15,21,7,4,7,18,-7,3
-15,11,41,61,17,-2,-43,-5,3
48,9,2,-50,-2,11,20,-11,3
-52,-14,-13,28,-10,-32,23,0,3
-11,9,7,-34,11,41,-16,11,3
-9,-1,14,-4,-12,-23,56,-29,3
-78,-15,-24,-26,7,16,-5,64,3
37,-6,1,-15,-3,-76,-72,-24,3
21,-15,-34,-56,-14,-5,12,-11,3
-5,20,98,127,17,13,24,-64,3
-37,-1,-32,-87,-17,13,-33,2,3
36,-21,-87,60,-22,9,16,11,3
-15,-7,-29,-41,18,-7,-53,39,3
-47,-30,-27,88,-30,-5,114,20,3
5,28,65,94,38,20,-84,1,3
5,19,102,83,32,32,118,-62,3
-7,2,-82,-90,-36,-12,21,82,3
14,18,33,60,13,6,-36,-2,3
-21,-5,-20,-41,-2,-10,120,21,3
-9,2,-1,-6,-15,-2,-97,-1,3
-17,0,33,29,4,-13,15,-46,3
-26,-5,-9,-73,6,6,-8,-5,3
16,1,-7,-7,-17,-22,-52,13,3
-8,0,0,-16,11,27,94,-12,3
-15,0,14,14,3,-17,-47,14,3
64,8,6,1,-21,-3,55,-40,3
-20,11,46,56,1,16,-72,-18,3
-61,-23,-79,-78,19,16,4,83,3
52,-1,-29,10,10,-7,0,7,3
-14,-4,-1,46,4,7,19,-7,3
7,2,33,87,1,7,90,-29,3
33,14,34,86,-6,-4,6,-31,3
-112,-16,-20,-100,-32,1,5,61,3
-5,5,-23,-18,10,7,-17,50,3
-112,-12,-9,-9,-8,-11,42,-4,3
-39,-3,-5,-5,0,5,-77,29,3
40,7,14,45,11,5,34,-74,3
-52,-7,3,-17,-3,-2,58,-21,3
64,1,-15,-44,15,-2,4,-14,3
-13,-6,4,20,-32,-3,127,-28,3
46,-14,-30,-83,-28,3,-96,-51,3
59,10,0,68,26,14,-96,12,3
3,-2,-13,12,5,4,26,4,3
-1,23,73,92,17,6,37,1,3
16,-11,-38,-46,5,-2,-82,-4,3
-30,1,53,75,-15,-23,-10,-1,3
-15,-20,-117,-128,-37,-8,-34,47,3
22,4,-11,41,7,29,45,31,3
-79,-6,43,127,-2,-49,-54,4,3
-80,-8,2,23,10,9,-15,50,3
-22,6,15,-15,-4,-2,2,44,3
30,7,4,-21,8,3,-69,-4,3
80,10,15,18,9,22,127,-26,3
-15,-19,-30,-73,0,-11,-56,2,3
-60,-7,18,15,-12,-6,42,-22,3
-30,-11,-24,-48,-22,-33,-45,-13,3
22,16,17,14,2,22,116,31,3
43,-2,-23,-59,-13,8,48,-52,3
29,9,21,-2,26,-28,-18,-21,3
28,10,36,92,-23,-22,5,-82,3
8,-2,-29,-53,34,9,-46,37,3
2,-1,23,62,0,13,98,-52,3
-19,13,81,94,41,33,-22,-11,3
-22,-19,-107,-126,-28,-19,-37,74,3
-40,-16,-45,-25,-65,-19,-37,61,3
116,-2,-32,34,-5,19,-5,-38,3
70,6,19,111,1,-3,-25,-27,3
-7,14,65,94,33,-1,-34,-27,3
-6,16,33,52,6,4,70,-39,3
-3,9,-17,-62,-5,-4,66,26,3
-7,-10,-4,-9,0,-5,-67,-13,3
-26,-19,-14,-71,-5,-6,-51,18,3
-72,-14,-1,-11,-1,10,68,-21,3
-78,-5,1,-8,-6,-11,94,44,3
26,-3,-15,-67,-7,6,39,-25,3
-41,1,-13,-70,9,31,120,26,3
-40,11,41,32,14,-11,-1,-2,3
-18,6,23,79,11,-30,-75,6,3
-21,-2,7,80,-4,12,59,-2,3
26,-2,-22,-86,-2,10,-28,3,3
13,10,47,127,21,18,56,-23,3
-22,-22,-66,-128,-30,-16,-109,3,3
13,-15,-87,-93,-39,-31,-24,39,3
18,16,32,99,5,-7,0,10,3
-21,-2,17,72,9,8,42,12,3
12,8,21,59,5,2,30,-17,3
-9,-2,11,17,-3,-16,-91,-27,3
64,2,1,-13,16,6,46,-38,3
3,-6,-14,-31,-16,-32,-99,-3,3
3,1,7,-36,-14,-8,-18,0,3
-29,-6,-18,-53,-9,17,40,5,3
-13,-2,-6,2,17,-10,1,-7,3
50,9,8,-24,-3,-5,-68,-20,3
32,-2,-5,-53,-14,12,-19,-44,3
-46,-2,7,48,34,5,-5,38,3
-31,-21,-5,28,-14,6,-17,-10,3
16,-7,49,117,33,10,3,-34,3
6,-3,-29,-101,-24,-5,9,26,3
-10,3,-34,-8,-29,0,-14,38,3
36,0,-39,-56,5,7,3,2,3
44,8,-7,66,-9,-19,9,-39,3
-20,11,44,83,22,14,42,-6,3
-7,3,15,-3,1,-23,-68,8,3
-28,-2,19,15,5,8,116,-18,3
13,1,-13,-44,-18,22,63,-3,3
-38,-6,-6,6,7,1,-21,5,3
7,-11,-6,-8,7,12,25,-10,3
-4,6,7,10,0,-13,-70,-2,3
-24,-12,-20,-75,-2,6,-12,-14,3
-49,-2,11,86,8,-7,-7,-5,3
33,-2,-7,-61,-8,0,46,-34,3
-54,0,0,-21,-7,7,-48,40,3
-17,9,4,50,-3,-12,2,56,3
16,-14,-40,-12,-2,-8,-14,-12,3
-17,3,22,87,6,-5,-128,-19,3
48,21,106,127,33,11,38,-40,3
-18,-30,-116,-128,-61,-7,46,64,3
35,0,-22,-14,-13,-9,-16,-29,3
12,7,19,112,7,5,63,10,3
-22,1,2,68,0,-4,-74,-6,3
-4,10,54,70,29,5,28,-48,3
0,5,19,0,9,-14,-71,-9,3
-19,5,-23,-65,-19,12,-11,25,3
56,1,-12,-34,5,0,-20,0,3
-40,-1,8,-28,5,-16,-55,-16,3
-13,-3,-12,-28,-6,-1,10,21,3
3,-8,-11,-77,2,-2,61,-20,3
-31,0,-20,-10,-2,0,96,3,3
18,0,-2,-3,-2,-2,29,11,3
11,4,12,26,12,11,2,12,3
10,3,18,-8,-11,-7,73,-12,3
23,-7,-15,-8,-14,10,89,-43,3
-13,-1,7,29,16,3,-76,-7,3
28,7,31,105,2,0,34,-39,3
27,-11,-55,-86,-8,0,5,29,3
13,3,19,89,9,1,9,-31,3
-12,-10,-27,-106,-26,-1,-17,-23,3
-2,-4,-17,18,7,5,-67,33,3
-32,-12,5,86,1,-2,37,-11,3
18,8,-1,2,-6,-5,-76,21,3
58,14,37,79,22,17,40,-10,3
28,10,13,-41,-4,-3,-7,-7,3
-14,-4,1,-36,-12,-33,-61,-11,3
-57,-29,-28,-68,-7,12,54,27,3
3,1,3,10,2,-11,12,-60,3
-33,-7,-18,-69,-18,-3,43,19,3
25,12,14,27,11,9,22,0,3
26,5,-3,-3,-18,-13,-32,-9,3
-22,-3,-1,17,16,22,-19,0,3
11,5,4,-5,9,4,27,13,3
-3,4,20,71,-1,0,19,-29,3
22,4,18,22,-1,-5,-12,-34,3
-6,-5,0,-15,-12,-15,18,25,3
-6,-4,-15,-61,-1,0,-2,19,3
42,-2,-44,-57,-23,1,-17,37,3
23,13,44,80,15,-4,-69,-46,3
-14,-10,-45,-93,-11,4,19,25,3
8,4,24,89,22,10,66,-10,3
-52,-2,11,40,-1,3,75,25,3
50,0,-13,3,-5,16,88,19,3
-51,5,35,76,10,-8,-90,13,3
-5,1,0,-35,-3,7,-1,15,3
-17,-1,-5,-23,14,14,-1,-1,3
-30,-2,-11,-28,-1,-13,-23,15,3
6,-4,0,-14,-6,6,-9,0,3
-6,-6,-16,-24,-9,0,-15,11,3
21,7,19,42,15,4,15,-28,3
-18,-4,-23,-46,-15,-23,-32,4,3
-7,5,-3,5,-8,1,-10,9,3
15,4,8,23,4,-1,24,-11,3
11,-5,10,10,10,29,45,-30,3
-16,-5,-23,-99,-7,-11,13,18,3
-6,5,21,81,11,7,4,3,3
3,0,-9,-63,-9,-15,-7,-2,3
57,3,-3,8,2,5,-3,-38,3
-10,-5,-14,-1,-6,-1,-21,-3,3
-27,0,21,39,6,-8,39,-3,3
-31,-11,-20,-18,-2,6,10,21,3
58,-4,-7,-12,-11,-19,-36,-14,3
-24,-1,-1,18,-1,4,0,-7,3
26,6,-4,-63,-14,-13,-38,-17,3
93,7,15,55,3,1,42,-56,3
-67,-5,-4,-27,1,2,60,2,3
-7,0,-2,34,-7,-19,-58,4,3
9,0,0,-3,1,17,51,-4,3
-15,-4,-2,-19,-12,-12,-53,-35,3
9,3,0,-9,-3,-15,36,19,3
16,11,32,87,14,14,80,-20,3
13,-11,-36,-64,-14,-5,-31,-16,3
-19,-2,-16,33,1,-2,4,-6,3
-6,2,14,61,-3,1,-16,4,3
14,-4,-8,-5,-4,10,75,-21,3
0,10,23,11,2,-16,-16,3,3
-7,-1,7,19,-1,13,6,2,3
50,-2,-8,-28,-6,-8,-41,-13,3
34,-4,-13,-25,6,13,17,-4,3
-35,-6,17,58,8,-5,12,-3,3
53,0,14,26,10,0,0,-62,3
-6,1,-12,-89,-3,9,60,-8,3
-6,-1,-27,-31,-16,-12,-114,-2,3
34,1,-5,12,2,14,77,-5,3
-33,2,2,15,3,-3,-87,13,3
-29,-4,11,31,3,3,18,-17,3
-17,-3,-5,14,6,-9,-5,18,3
2,0,-15,-35,-1,4,-23,7,3
-32,1,10,12,0,-4,-26,6,3
-13,-1,-6,11,1,7,27,0,3
-17,-4,-6,-40,-14,-15,-116,12,3
-7,-4,-8,23,-2,9,79,16,3
-30,3,2,-22,-1,-2,19,46,3
18,14,44,102,11,-17,-128,-13,3
-27,-14,-39,-74,-8,4,76,25,3
21,-2,-11,-82,-13,-13,-34,-12,3
-7,-1,-9,10,4,36,11,22,3
-28,-4,0,13,1,-26,-27,2,3
-6,-1,18,30,5,5,8,-6,3
-6,1,44,127,13,4,-28,-32,3
6,-13,-29,-105,-19,-11,34,9,3
30,-2,-35,-70,-17,1,-75,21,3
-2,4,-3,29,1,2,38,8,3
25,5,-5,-34,6,6,-9,-9,3
-22,2,21,77,18,-1,-32,4,3
-37,-5,4,6,0,11,34,18,3
14,3,-2,-41,-6,-2,-34,11,3
-10,-5,-11,0,-4,-8,-14,-8,3
7,4,7,9,3,-7,-11,-16,3
-12,0,-8,-28,-8,10,7,7,3
-8,-5,3,9,2,-18,-10,-14,3
23,-1,-1,-13,-5,-12,64,-10,3
8,-3,-8,1,8,12,-9,-8,3
-3,-1,7,-18,-21,-26,-64,-20,3
-2,6,29,85,10,22,48,-15,3
-62,-11,-37,-80,-7,2,20,37,3
18,2,-3,-58,-10,33,-12,-29,3
-22,5,25,37,28,-24,63,13,3
7,-1,-11,3,-6,2,3,12,3
0,6,17,37,21,17,14,-8,3
-56,-10,-51,-44,-34,-19,-40,50,3
51,6,11,94,8,24,24,-36,3
-29,1,20,67,6,-9,-12,2,3
9,-2,-24,-35,-9,-1,-10,7,3
9,-8,14,17,6,5,23,-19,3
1,-3,-11,-40,-10,-4,18,-2,3
37,5,3,-13,3,-19,-37,-54,3
-8,3,11,11,-1,11,-27,-4,3
-3,2,15,22,7,-18,45,-26,3
-5,-2,-13,-40,-5,14,68,1,3
7,4,-2,-29,-8,-33,-26,11,3
42,2,-3,18,-8,33,61,-3,3
19,3,8,9,0,-42,-19,-13,3
-7,-7,-3,9,7,10,48,-15,3
-17,0,-4,-26,5,35,55,15,3
-4,-2,14,42,4,-6,97,-1,3
-3,2,20,69,0,1,-34,1,3
2,-7,-59,-102,-22,-5,-11,16,3
-32,-4,17,34,10,11,5,0,3
-32,-12,-12,49,-12,-17,-17,33,3
3,4,16,-41,7,4,0,12,3
-30,-9,-25,-54,-8,-8,-41,24,3
9,-3,-14,-25,-4,6,28,1,3
-13,2,15,57,5,-4,-58,-17,3
-4,5,11,23,3,-5,18,-21,3
21,8,17,24,1,-9,-60,-27,3
2,-8,-9,-30,-3,-1,40,-19,3
14,0,-3,-22,-2,-1,16,-10,3
13,2,-8,1,-11,4,-21,-22,3
1,-1,2,-11,11,33,6,-22,3
7,11,7,6,7,-31,-47,-3,3
-5,-2,-1,-23,1,5,-43,-17,3
-7,-12,-11,6,-4,-14,30,-9,3
-32,-6,19,87,12,17,10,11,3
-53,-7,-11,-89,-6,22,64,46,3
5,3,14,22,3,-30,-85,-18,3
-1,-7,-40,-31,-27,12,100,40,3
10,9,32,92,6,-9,-23,-19,3
-5,-1,-11,-69,-5,6,-10,4,3
16,3,-6,-47,-1,-4,-13,-1,3
19,6,10,28,9,10,-8,-16,3
-26,-3,4,15,-7,-22,30,25,3
3,3,10,65,9,6,24,-3,3
36,6,4,-2,-4,-6,-33,-27,3
-11,-9,0,12,2,-2,25,-15,3
22,1,-9,-42,-11,-6,-50,-6,3
20,-2,0,15,2,1,-16,8,3
25,-7,-9,-15,2,1,60,-8,3
2,2,-5,-2,-4,-4,-8,7,3
-15,-1,0,-6,-7,-1,-31,13,3
18,-7,1,30,2,14,-27,-21,3
-27,-4,-29,-43,-4,-10,-4,33,3
19,8,4,-58,0,-9,-66,-3,3
-19,0,22,75,11,-1,44,-3,3
-18,-8,-21,-91,-21,6,-21,7,3
0,3,40,106,18,11,15,-13,3
1,-10,-57,-88,-14,-6,-78,19,3
11,11,38,86,19,-14,-94,-29,3
-17,-16,-50,-103,-29,-9,112,5,3
-14,-1,-11,31,-15,-9,-123,18,3
-2,6,28,55,11,5,53,-24,3
26,3,1,8,16,6,-17,-19,3
18,3,12,59,-14,-6,35,-35,3
-8,-2,-12,-56,-9,-14,-52,9,3
60,6,9,28,3,2,10,-23,3
-8,2,-9,-47,-4,10,12,3,3
-14,6,16,20,10,-6,-34,14,3
7,-3,-10,-42,-5,7,54,4,3
-16,2,14,27,12,17,-6,-4,3
3,-12,-18,-64,-11,-10,13,4,3
2,8,41,114,19,-7,-33,-10,3
-17,-12,-37,-90,-11,4,37,10,3
-14,0,5,7,-3,-10,-42,0,3
-1,-7,-35,-59,-14,3,3,9,3
-12,2,6,63,0,-11,-15,19,3
34,6,16,-37,1,20,83,-34,3
-8,-1,-4,3,-1,-11,-29,11,3
4,5,-7,-15,-6,-1,-27,-4,3
-8,-1,2,-20,15,7,-46,1,3
23,3,9,57,-5,0,74,-11,3
6,-2,-2,-19,-3,-9,6,-12,3
14,4,4,-7,2,5,4,12,3
-11,0,-4,-3,3,15,43,8,3
9,3,7,5,5,1,-52,-35,3
-17,-5,-2,31,-2,0,65,3,3
1,3,13,2,3,-7,-40,-4,3
3,-9,-16,-14,-5,-17,6,-26,3
-10,0,9,35,9,13,33,-6,3
8,-2,-16,-55,-14,-2,8,-10,3
23,-4,-13,-8,-8,-1,2,-14,3
-3,5,32,-3,4,-2,-35,-9,3
-11,-6,-22,-63,2,5,-19,-2,3
-8,-6,-1,32,3,-2,-13,8,3
-39,-6,0,-4,0,1,6,19,3
27,-2,-10,-2,-11,-11,-33,-27,3
-6,3,16,64,8,7,-47,-9,3
-5,6,15,-5,8,9,106,7,3
7,4,-6,-12,-4,-10,45,-12,3
2,-8,-11,0,-12,-2,46,-2,3
-22,-2,0,-3,-4,-19,-99,3,3
-3,-4,-4,0,-1,48,108,-7,3
-11,-1,2,-1,1,-35,-9,13,3
80,9,1,6,7,1,19,-13,3
1,2,5,-22,6,9,9,12,3
-14,-3,-4,-22,-6,-14,-74,-19,3
4,-1,2,17,-9,0,19,-1,3
-14,1,2,-15,1,4,-12,7,3
-16,0,-12,57,-2,-10,30,27,3
7,10,53,96,18,-6,-58,-19,3
3,-19,-76,-116,-30,1,-3,27,3
-17,-7,-7,32,3,13,3,-2,3
7,-2,-5,10,4,3,-17,5,3
-14,1,11,50,0,0,21,13,3
-14,5,26,43,8,-2,-9,-22,3
6,5,-4,-45,-4,-14,-4,-1,3
1,0,3,0,9,10,-33,16,3
3,0,-11,-24,-11,-23,-23,-5,3
-30,-5,7,1,-8,32,-29,13,3
38,3,-11,-42,-8,-17,-77,-10,3
-10,-3,6,-14,21,38,21,4,3
0,1,-5,-19,-12,-97,5,19,3
9,2,10,55,-10,47,105,-6,3
-50,1,28,94,11,10,-32,10,3
8,-2,-42,-90,-22,16,17,-12,3
22,-3,-11,6,6,32,10,-5,3
25,-7,-57,-104,-8,-17,54,28,3
-2,2,9,92,-1,-3,-15,-7,3
-3,3,33,9,5,-13,-13,-6,3
-10,-4,-10,4,1,11,51,13,3
1,5,26,48,8,-26,-17,-18,3
-10,-6,-13,-55,8,21,-5,-1,3
-4,1,12,38,1,-17,19,6,3
18,-7,-2,-15,-6,-25,-60,-21,3
-11,-5,3,-7,-7,7,57,-14,3
11,-1,-12,-24,-1,9,21,10,3
4,-1,0,10,-4,-15,21,-14,3
-23,2,0,-4,3,25,-1,3,3
3,-2,4,13,10,-5,-33,-9,3
3,-1,-7,-26,-11,-30,5,7,3
-1,0,0,6,-8,-1,-18,-9,3
-7,0,6,-4,7,33,9,8,3
4,2,-15,-44,-13,-66,-50,16,3
7,3,-5,-17,0,34,31,-2,3
-12,3,35,84,7,-43,-63,11,3
-27,-17,-58,-92,-13,30,28,7,3
14,-4,21,98,8,1,6,-34,3
-46,-12,-33,-83,-18,-16,23,45,3
21,8,2,23,-1,18,55,7,3
-19,8,25,28,8,5,10,14,3
-15,0,10,6,11,3,-1,6,3
19,1,0,-2,-1,7,-57,-10,3
2,3,-3,-15,1,31,68,11,3
11,7,7,19,-9,-28,-76,-10,3
-19,-1,0,-19,9,2,74,13,3
-3,-11,-3,6,-1,22,46,-28,3
-7,-8,-7,-21,-12,-50,-97,7,3
21,-2,7,26,8,36,16,-26,3
12,6,3,-42,-2,10,-13,-1,3
-9,5,23,93,13,8,1,-9,3
-4,-11,-57,-126,-17,-2,40,-7,3
13,4,7,77,2,-8,-28,-17,3
8,6,29,34,6,19,-27,-38,3
1,-1,-12,30,-4,-10,21,2,3
0,-4,-13,-73,-14,0,-1,1,3
15,2,-3,-5,-4,-14,-6,0,3
-28,1,8,28,7,4,-28,7,3
-22,1,12,11,1,-2,34,-13,3
10,2,14,41,3,-5,-24,-6,3
-27,-6,-6,-37,0,19,81,-4,3
1,-2,-7,8,-10,-27,25,0,3
31,-3,-9,-28,-1,4,-39,-22,3
-9,1,3,15,3,-4,6,7,3
-5,-2,1,-8,5,7,57,23,3
11,1,-4,-5,2,28,0,4,3
17,2,-1,-19,0,-4,30,7,3
-2,2,-1,14,-2,-11,-26,-13,3
2,3,6,33,-1,2,21,-14,3
-1,-1,-7,4,-5,-13,-68,-1,3
-4,3,5,-7,-2,20,15,-3,3
14,3,12,26,4,-2,-39,-30,3
7,4,2,-35,-5,-11,-22,22,3
-8,-10,-32,-46,-9,6,8,11,3
-6,5,25,44,8,-5,10,8,3
-7,-11,-39,-87,-17,-2,16,9,3
-6,4,9,47,3,-4,-48,0,3
1,-2,8,20,11,24,5,-16,3
-31,-6,-6,3,6,3,23,23,3
3,4,25,82,-1,-39,13,-1,3
-33,-4,-5,-26,-2,0,-34,-3,3
64,7,-4,-2,-6,13,16,-20,3
-1,2,-1,-4,-7,-8,-22,2,3
0,-4,3,6,6,-9,-16,-34,3
6,0,-9,-28,-6,11,79,4,3
-21,-3,4,12,0,-2,-44,5,3
2,-6,-5,-10,-3,-14,-59,-5,3
-1,0,0,-12,4,22,69,1,3
10,-4,2,42,-4,-13,-51,-3,3
-18,4,25,73,6,2,22,-5,3
-9,-10,-52,-101,-8,-11,-2,13,3
3,-4,-17,-9,-7,10,-16,4,3
4,-4,5,-8,4,-2,8,4,3
-9,-3,-7,-77,4,7,77,2,3
15,0,1,3,-2,-28,-67,-22,3
-1,-1,7,44,-2,20,87,27,3
8,-6,-7,-25,-3,-8,-61,-21,3
-7,4,13,39,0,-4,-71,-4,3
-27,3,2,-6,-5,27,96,17,3
-9,1,2,-16,7,-22,-43,8,3
8,1,4,31,-6,-4,46,5,3
10,1,-5,11,2,-6,14,5,3
-8,5,17,15,4,-2,-23,-7,3
-1,-5,-13,-15,-8,8,-63,-19,3
-2,2,2,-9,1,0,27,9,3
-20,-1,-6,10,-3,-4,-16,6,3
16,1,1,-31,2,0,20,-10,3
3,6,31,26,2,-2,40,3,3
7,-6,-26,-60,-2,-9,-50,0,3
-10,1,30,65,7,-2,0,0,3
-2,-19,-57,-83,-27,10,-1,1,3
-12,-1,-9,32,3,-12,54,6,3
-2,0,5,79,8,11,12,-7,3
14,7,10,25,5,-2,-7,10,3
6,0,18,45,1,-13,73,-31,3
6,-1,2,-26,0,14,-17,-5,3
4,0,-4,-27,-1,-1,1,2,3
5,0,-4,-20,-4,-4,-7,-9,3
7,8,13,7,5,-10,-35,-3,3
-5,-4,-12,-26,-10,2,-16,0,3
-1,0,10,30,2,-4,-6,-2,3
-6,-6,-13,-27,-10,2,24,2,3
-9,4,6,0,0,-8,-32,14,3
1,3,10,34,10,11,75,-2,3
9,2,-9,-26,-13,-5,5,-5,3
0,-5,-2,6,-2,1,94,7,3
-14,-3,-8,0,4,-4,53,12,3
11,-1,-1,-1,-8,7,-40,-14,3
2,4,8,-2,15,0,-12,13,3
13,-4,-12,-24,-11,6,38,-3,3
3,-1,17,65,8,-9,-66,-12,3
-44,-1,4,-3,2,6,-18,10,3
-15,-3,-9,29,-3,-7,-53,-1,3
40,4,3,-61,-2,-7,-88,-44,3
7,5,6,7,0,9,70,13,3
0,-2,-8,0,-5,-10,-58,1,3
14,-2,0,-9,-4,-6,-23,-20,3
-8,-4,-2,22,5,-7,-4,-11,3
-11,0,3,-16,-5,-8,-22,3,3
35,6,9,16,7,10,34,-13,3
-11,1,-1,-23,-7,-15,10,4,3
-11,-3,-13,-39,-7,-5,-53,17,3
-6,-6,-12,-31,-2,3,58,-19,3
-5,4,29,45,13,16,43,3,3
11,-2,-20,-77,-8,8,44,10,3
-11,2,-1,31,5,5,-10,7,3
25,0,-8,-8,-12,-12,-47,-9,3
1,0,4,26,4,-4,-5,-4,3
-7,-4,4,28,-1,-15,-59,-11,3
-18,-3,-5,-19,-3,2,56,13,3
30,3,10,16,8,21,-32,4,3
16,-1,-10,-20,-3,-22,11,2,3
-10,-1,3,-9,2,19,11,-1,3
-6,-4,-3,9,-2,-4,7,3,3
-7,4,14,57,4,-10,-38,-1,3
-4,-6,-19,-26,-8,-1,14,8,3
23,2,-5,-34,-5,4,27,-15,3
-5,-1,0,17,-5,-13,-30,2,3
-12,0,7,51,8,9,11,-1,3
1,2,0,-21,3,5,-26,-10,3
-15,-4,-1,12,0,-7,16,10,3
6,-3,-6,0,-7,5,40,-16,3
-10,-1,1,-1,-4,1,-1,18,3
9,-1,1,11,2,-6,-61,-7,3
18,1,9,34,-1,0,35,-18,3
-37,-1,-1,-20,1,3,-38,14,3
8,1,-8,-42,1,-7,-35,-2,3
-7,1,1,-1,6,20,78,9,3
32,-3,-9,-23,-4,-18,9,-12,3
12,4,2,5,5,-15,-18,8,3
-34,-3,8,19,-3,9,65,-10,3
8,3,3,9,0,-4,-71,7,3
-6,-5,-25,-66,-7,15,31,18,3
11,-2,1,46,-4,14,92,2,3
18,-3,0,6,3,-14,-60,-26,3
0,3,5,-14,0,-1,2,-23,3
2,4,-3,-9,0,8,-15,1,3
-33,-2,-4,-25,2,-7,-26,12,3
-16,-7,-3,-6,-5,0,0,20,3
-1,-7,-5,21,-7,-15,-55,-24,3
-11,2,10,54,0,2,25,0,3
5,5,-5,-49,2,8,-26,3,3
21,6,4,-8,10,-8,12,-30,3
-18,-7,-16,-10,-19,4,59,4,3
-14,2,6,29,2,0,-64,0,3
19,2,12,30,5,-15,-55,-14,3
-8,-6,-12,-61,-7,17,51,15,3
8,-6,-13,-18,-3,-3,38,13,3
7,3,15,43,4,2,5,-11,3
-6,-6,-21,-23,-7,9,3,2,3
6,2,-6,-10,0,-12,-67,12,3
-1,5,14,-2,-2,4,27,0,3
-12,-6,-9,31,2,2,43,0,3
-5,-4,1,-6,1,2,-4,-6,3
-7,-2,-2,-3,-3,-3,5,13,3
4,-2,-3,-4,7,13,-14,-7,3
-18,2,12,17,4,2,47,-8,3
11,-3,-9,10,-19,-11,-38,-19,3
1,-1,-8,6,-5,5,44,-7,3
-21,-1,0,2,3,12,7,3,3
3,-1,3,-5,8,0,6,5,3
-1,0,4,-12,1,10,-5,4,3
-5,1,4,0,5,4,-20,-2,3
-1,-3,-11,-13,-4,-13,-16,11,3
12,-4,-7,0,-8,-20,-76,-11,3
3,4,9,21,7,0,39,5,3
-6,3,20,84,7,11,30,0,3
15,2,-23,-89,-12,-5,-23,8,3
11,3,3,30,-7,-6,-1,1,3
-4,1,-10,-42,-5,-3,19,17,3
19,0,2,0,13,10,29,-1,3
-31,-6,2,42,-1,-12,-22,-8,3
-8,5,24,51,14,25,-7,0,3
7,1,-7,-64,-10,-12,-17,24,3
-28,0,-2,-19,-7,-12,-13,22,3
3,4,4,-13,5,14,81,15,3
-11,-8,-10,-14,-5,-5,-21,-9,3
30,-2,10,40,3,-3,-39,-32,3
-6,-5,-15,-44,-9,-15,4,-21,3
29,-1,3,13,-2,-6,72,-8,3
1,11,16,20,5,12,-7,-10,3
1,-1,-13,-7,-2,13,-7,1,3
5,0,-2,-10,-11,-9,-98,-27,3
-17,5,11,27,-1,-21,-53,13,3
19,-5,-12,-28,2,-3,-11,-5,3
12,-10,0,46,-2,5,60,-29,3
-21,-2,5,-1,2,-1,5,-9,3
12,1,-6,-63,2,7,-42,13,3
-17,-9,-14,-52,-13,-7,-26,8,3
-5,-2,8,64,5,-2,-52,-2,3
6,0,10,34,2,10,41,-10,3
0,-4,-4,-8,5,7,17,-12,3
-11,4,2,-19,4,16,-7,18,3
-28,1,2,-25,8,0,120,16,3
3,-5,-4,24,-9,-25,-77,4,3
2,3,2,16,-6,-18,-98,-11,3
-1,-2,-5,-18,-4,11,17,2,3
-26,-3,5,23,-4,-1,-56,-17,3
2,2,-1,-34,24,30,101,19,3
0,-4,-7,36,-16,-19,-23,-10,3
14,2,-5,28,-5,1,-16,-5,3
22,4,9,8,4,-4,-14,6,3
13,-2,-8,-55,-6,-6,-23,-10,3
-44,1,7,-6,8,15,-19,21,3
17,5,3,-1,1,-13,58,-5,3
12,-5,-15,-42,-8,-3,-13,-9,3
-9,-2,-5,-3,-4,-1,-9,4,3
-4,-8,2,50,1,6,22,-10,3
-8,5,28,30,10,-8,-3,1,3
-4,-4,-24,-70,-7,-3,-8,8,3
5,-4,-13,13,-3,0,25,3,3
-10,-11,-18,1,-7,-3,34,1,3
-36,-2,-9,32,0,-9,-39,-13,3
32,7,24,11,7,-1,-59,-10,3
6,2,9,-17,-5,-1,94,0,3
10,6,7,12,2,4,46,19,3
-3,-2,-9,-12,-2,-5,-9,-7,3
-21,1,19,20,5,8,60,9,3
27,5,-20,-5,1,-10,-100,-8,3
21,-1,12,-7,1,18,38,-27,3
8,-3,11,42,-2,-20,-47,-1,3
0,-9,-9,5,-3,-8,-74,-13,3
13,-6,-25,-69,-16,5,39,7,3
9,8,-7,6,2,-2,-23,-10,3
-10,-10,1,-2,-1,21,32,4,3
-4,-2,7,50,12,-34,-59,5,3
-35,-6,9,31,-3,17,9,-14,3
12,-7,-7,16,-9,4,-45,2,3
3,4,-1,-39,-6,0,-13,0,3
0,7,-2,-9,0,8,85,12,3
-2,5,7,-8,17,-11,-128,2,3
-9,-6,7,1,-8,-4,127,-19,3
8,-1,-7,10,-6,13,-16,-3,3
5,2,-1,7,3,9,17,8,3
-47,-4,9,19,-4,-10,-9,23,3
11,1,-23,-73,1,5,-32,6,3
4,3,24,75,15,-3,7,0,3
2,-7,-52,-128,-18,8,28,3,3
1,-1,14,78,-8,-32,-42,-25,3
10,-2,4,59,4,16,101,9,3
5,3,0,44,5,-8,8,-22,3
-3,-1,-6,-42,-10,-4,-3,9,3
15,3,6,12,13,63,35,-20,3
-16,-4,-1,-6,12,-48,22,21,3
7,3,-4,-10,-19,-16,95,12,3
15,6,18,57,12,14,-9,-14,3
-13,-3,-10,-41,-10,0,3,14,3
22,7,13,-8,8,11,-4,-5,3
-32,-7,-9,-34,-3,-1,4,-2,3
-10,-12,-9,-7,-5,-2,5,-13,3
12,0,-6,-19,-2,2,28,1,3
-5,1,8,21,-4,-1,-64,-10,3
6,6,6,-8,2,-13,-6,9,3
-22,8,2,-52,-2,2,-28,2,3
30,1,2,1,5,-7,-2,11,3
-32,-3,20,75,6,6,54,-15,3
-1,-15,-49,-118,-26,-23,-103,12,3
11,3,13,69,11,22,0,-10,3
-6,-1,-6,-80,13,4,67,1,3
1,4,6,2,6,-8,10,-2,3
11,-1,0,44,-14,-15,-7,-5,3
8,4,7,3,-1,-5,-25,-9,3
-2,4,0,-8,-6,-10,-12,7,3
13,3,-6,-23,8,18,-38,-10,3
-30,1,5,-1,10,24,49,20,3
10,-4,-2,16,-4,-13,27,-5,3
-7,-2,2,21,-8,-20,-14,2,3
-3,7,12,15,-3,6,-31,3,3
0,-11,-28,-69,-7,1,-2,2,3
-23,-7,-5,18,-10,-7,3,-12,3
24,-2,9,45,9,10,-2,-13,3
-3,-7,-27,-72,-18,-13,-41,2,3
9,4,13,11,6,1,-10,0,3
3,5,10,36,7,11,12,-8,3
9,4,2,-39,0,-21,51,-10,3
-19,-13,-17,9,-15,-9,56,-2,3
29,0,-1,15,5,-1,-82,2,3
7,0,-1,11,-7,-4,105,-1,3
-26,6,7,24,-1,15,6,12,3
56,9,10,13,13,0,-33,-24,3
-10,3,2,-27,3,14,10,0,3
1,-1,-4,-17,-6,-6,17,4,3
2,0,-1,6,-1,-5,-43,8,3
12,0,-5,-19,-11,-11,-23,-10,3
6,-2,7,23,3,1,20,-2,3
2,1,-1,24,-2,-5,10,4,3
0,-7,-15,-50,-11,-5,-41,-5,3
-8,2,3,-2,4,5,-31,10,3
10,8,8,6,2,-1,29,-8,3
-19,-3,21,86,9,-4,-43,-6,3
-7,-8,-39,-80,-21,7,21,25,3
10,2,2,63,-3,-1,3,1,3
-11,-4,-7,29,-6,-20,-73,-11,3
7,1,4,-29,9,10,30,15,3
4,-4,8,57,7,-7,32,-27,3
-11,-2,-3,-28,-6,0,-45,6,3
1,-1,0,-15,1,9,30,-3,3
48,8,0,-23,2,1,-12,-16,3
-2,1,5,21,-2,-3,20,3,3
-2,4,-4,-45,-2,-1,-16,16,3
-7,4,10,54,6,-4,-36,-9,3
-20,-5,-30,-100,-18,-3,-20,7,3
5,-2,-3,-16,8,24,8,3,3
-3,-5,-3,14,-5,-47,46,10,3
14,-3,1,13,1,12,55,7,3
-30,5,34,87,11,6,-58,-15,3
17,-5,-45,-63,-24,-5,-20,-2,3
-20,-2,4,14,9,22,85,0,3
-3,-11,-12,19,-16,-24,0,4,3
0,2,2,7,3,4,15,-4,3
-1,6,23,38,6,-5,-40,-3,3
-2,4,0,-37,3,5,-26,7,3
-2,5,-2,-35,6,2,10,-5,3
22,1,-5,-9,-4,6,29,-12,3
-13,-2,6,15,1,-10,-60,5,3
-6,-1,-3,-10,-2,0,3,-4,3
-10,3,12,10,4,4,5,-2,3
-38,-14,-22,-35,-16,1,-23,-20,3
9,4,5,26,0,-13,-6,1,3
5,-2,7,45,-2,4,-77,-19,3
-6,-2,-6,-53,-3,4,24,-10,3
28,5,-3,-45,0,-11,-20,-8,3
-37,-6,4,41,1,-1,21,-18,3
-13,-5,-13,5,-1,10,-7,-7,3
3,-6,-7,-5,-2,-3,-6,-1,3
-17,-10,-9,4,-2,-2,13,7,3
26,-5,0,-11,-5,-17,-4,-15,3
12,8,17,37,5,9,50,0,3
0,6,-7,-2,-6,-9,-88,-15,3
9,11,-2,6,-2,-2,59,10,3
-4,7,12,19,2,19,45,3,3
-13,-8,-4,4,7,-33,20,-2,3
28,3,1,-31,0,15,56,15,3
-30,-8,-3,-6,0,5,24,19,3
9,0,6,10,1,8,-29,-11,3
2,0,-2,-18,-6,5,-3,14,3
1,-1,-2,-24,4,7,56,-12,3
8,1,-3,39,2,-12,-59,2,3
-2,1,3,-11,-1,7,67,9,3
-3,-6,-17,-58,-17,-6,9,19,3
4,2,10,61,7,5,17,0,3
-3,-4,-4,-33,3,3,7,18,3
-24,-6,4,48,-3,-1,-9,-25,3
0,-9,-16,-34,-8,4,-6,0,3
-18,0,7,18,1,-10,-35,18,3
1,5,4,0,1,-20,-43,-1,3
6,3,-7,-33,-3,11,21,10,3
15,4,8,5,-3,6,-9,2,3
-7,-4,-10,-17,-1,4,50,8,3
-1,5,9,13,2,1,1,-2,3
-32,-5,-1,15,1,-20,6,-2,3
5,-2,0,13,-8,19,-24,-4,3
-28,3,1,-18,2,-21,-17,18,3
15,-5,1,22,-2,6,-1,-14,3
4,1,0,-8,0,4,21,15,3
0,5,3,6,-1,-12,-61,-10,3
55,-3,-9,-4,0,1,22,-38,3
-18,-4,1,30,4,-1,-36,5,3
-5,0,-5,-46,-3,-5,37,0,3
16,1,-3,3,0,12,12,12,3
-11,-9,8,16,-6,6,-29,-2,3
1,-3,-14,-53,-1,2,59,-6,3
25,0,-4,-15,0,6,57,4,3
1,6,4,22,9,3,-11,-13,3
9,15,13,-18,7,5,-5,7,3
-19,-12,0,-7,-8,-3,24,-17,3
-7,-7,-3,41,-5,-31,-45,-5,3
-11,-6,-4,-3,-8,-9,-24,8,3
-1,-3,-7,1,-4,-8,58,-22,3
10,6,4,-11,4,13,0,5,3
-8,8,5,2,6,10,29,17,3
18,2,2,-2,-4,-9,-16,-28,3
20,-1,-3,-5,2,5,2,-4,3
-33,0,-5,-7,-4,-13,-18,-1,3
27,1,2,12,-1,-2,-52,-9,3
8,7,15,50,10,7,34,2,3
-19,-2,-3,-22,-6,7,-5,8,3
-6,-11,-7,-22,-5,-3,13,3,3
-6,-6,-6,13,2,14,-2,-1,3
1,3,-7,-7,-8,-34,-29,-10,3
-18,-1,-2,24,-6,-2,-1,-18,3
15,0,6,15,-2,-11,-43,-1,3
-8,4,27,89,7,18,62,1,3
1,-37,-32,-89,-9,2,-63,-2,3
-10,-15,-3,20,-2,-4,7,-5,3
26,10,5,-18,2,-5,24,14,3
-20,10,3,14,-3,-17,-105,-12,3
-3,11,10,10,5,21,43,-3,3
-31,0,-1,-7,-2,-1,-5,7,3
17,2,-7,1,1,10,13,17,3
18,4,-8,-27,-3,-6,-18,-7,3
-15,1,0,11,5,1,21,3,3
19,1,-3,-5,1,1,2,11,3
-15,4,-2,2,1,4,-6,-12,3
1,2,-3,-11,-1,4,13,-4,3
-18,3,0,19,-6,-12,-36,-10,3
17,5,1,-21,0,12,36,-1,3
-8,-1,-3,11,-5,-6,-33,-7,3
-3,-8,-4,-38,-2,1,19,19,3
-6,-4,2,29,2,-4,-57,-19,3
5,-9,-9,-7,0,6,-4,22,3
-13,-4,1,7,-1,9,-23,-23,3
7,-9,-3,-20,-9,-14,24,11,3
44,13,6,-1,10,13,57,9,3
18,1,-2,-1,3,-4,4,-23,3
-5,-9,-5,-6,-5,-13,-21,19,3
-5,-2,-3,4,-3,-10,-73,-5,3
-16,1,4,-2,3,2,15,2,3
2,9,13,1,2,7,1,-13,3
12,4,0,9,1,-6,-6,8,3
1,2,0,3,-6,3,56,-4,3
-1,-4,-8,-29,-7,-3,9,-4,3
-7,-9,-6,37,-2,-4,-17,4,3
-9,-2,-6,6,1,6,5,-9,3
11,0,3,-23,3,0,-13,-1,3
-14,-3,-10,-24,-4,7,32,8,3
7,9,2,5,0,-2,-25,5,3
9,8,13,-4,12,3,-26,-28,3
-1,-19,-11,35,-12,0,-25,-28,3
-38,-10,-5,-12,-8,-2,74,36,3
23,2,0,-8,2,-8,1,-6,3
5,5,5,-5,3,10,-46,-9,3
-16,1,1,-13,6,11,5,-2,3
20,6,10,8,0,7,11,-8,3
-20,-7,-15,-32,-8,-28,-31,18,3
-10,3,6,0,-3,7,31,0,3
23,9,1,-16,7,-1,-3,15,3
-12,-10,-13,-50,1,7,-39,3,3
-6,6,14,66,3,-3,-42,-7,3
8,-3,-14,-11,-4,-5,40,7,3
1,1,13,0,0,-4,15,2,3
8,-11,-18,-23,-10,-6,-26,-5,3
-29,-18,-17,-52,-5,11,21,16,3
-20,-10,1,36,-4,-16,-51,-15,3
-7,11,1,19,-5,1,45,15,3
11,10,17,27,16,8,10,-6,3
7,5,3,-7,-3,-4,16,-15,3
-8,-8,-5,-10,-1,16,58,21,3
-6,-2,0,-1,-2,-22,-65,-14,3
0,1,6,10,-2,0,15,-1,3
12,2,-5,-3,-4,3,3,0,3
17,3,2,-13,-1,0,23,8,3
-18,1,-4,-14,8,10,-3,-7,3
-17,-2,2,26,2,1,46,4,3
3,-2,5,-2,-4,-1,-94,-7,3
13,3,-1,6,-1,-6,-34,9,3
22,12,8,18,2,9,63,4,3
0,-11,-21,-40,-8,-8,-13,5,3
1,-6,-1,2,1,3,127,0,3
-5,-9,1,16,2,-9,-84,4,3
-7,-10,-5,24,-2,2,48,-1,3
12,9,2,-42,-1,11,-9,11,3
3,0,-5,7,-3,6,24,-1,3
-42,-6,-2,-16,5,15,32,4,3
3,2,9,12,5,1,-14,-9,3
14,10,9,27,-2,-4,14,-3,3
5,3,-7,-7,-5,-1,-28,-1,3
-24,-3,4,2,-3,-5,31,1,3
4,-4,-5,-21,0,6,-34,-19,3
12,-1,5,36,0,-7,-30,-10,3
-14,2,3,-16,4,7,47,8,3
10,3,-2,13,-8,-19,-11,-8,3
3,-2,-5,-15,2,2,-14,11,3
2,1,2,3,2,-9,1,-1,3
-5,1,7,4,2,-5,-59,-7,3
17,-3,-7,9,-5,21,123,-9,3
-32,-3,-7,-36,-1,-6,-48,15,3
-4,-1,2,4,5,-22,-46,8,3
-8,-2,-7,-48,-2,2,-2,1,3
17,6,10,-7,3,-3,-20,-9,3
9,8,9,44,-6,2,73,-9,3
-10,-11,-18,-2,-10,-1,-28,-18,3
-25,-6,-6,10,-6,-4,0,-7,3
-12,2,1,-24,1,-4,38,3,3
23,6,0,-9,1,1,-10,-13,3
1,9,12,24,5,1,2,-6,3
11,-9,0,2,-1,18,5,13,3
-31,-14,-9,-9,1,-7,21,5,3
33,-13,-11,-3,-9,2,8,-16,3
-4,3,2,-3,0,6,9,-3,3
20,12,6,-2,6,13,-21,-18,3
4,5,-1,-20,-3,-6,91,30,3
0,2,2,-17,11,11,-18,5,3
-6,-8,-2,8,-6,-4,-10,2,3
-3,-2,0,3,-2,-7,-20,-10,3
8,0,0,1,-1,-6,-31,-15,3
1,-4,-7,18,-9,-9,0,16,3
0,6,3,-11,5,4,18,-4,3
-5,3,-5,-20,-4,-11,-52,13,3
17,5,2,17,-2,4,-23,-2,3
0,-4,2,3,7,-4,-33,-19,3
7,-2,3,8,1,9,32,0,3
-3,0,-2,12,-2,-4,34,1,3
-8,-12,-6,-3,-7,-4,-32,-15,3
-1,1,-3,-3,-2,3,-6,10,3
-14,5,8,36,4,5,73,-5,3
-20,3,-1,-26,-4,-11,-20,14,3
51,-4,2,25,-3,-2,-53,-21,3
-17,-5,-16,-68,8,40,50,-2,3
-35,-11,-10,-14,6,-23,34,14,3
8,-3,0,24,-3,11,54,12,3
2,7,7,12,4,-2,-94,-7,3
-24,-5,6,9,0,-3,10,-8,3
25,1,2,-28,-5,4,-60,0,3
-20,-3,1,10,-3,-9,-3,-19,3
-12,1,3,11,1,1,44,-8,3
4,-1,-8,-20,-6,-5,19,0,3
6,2,-13,-40,-10,7,-10,-5,3
13,6,11,26,4,-11,-9,4,3
-9,-8,-13,-24,-4,11,13,6,3
-23,-6,-3,19,2,-11,-60,7,3
5,0,4,21,-6,-14,-6,-15,3
8,-2,-5,-10,0,17,7,-1,3
7,13,5,-4,3,6,26,-1,3
2,1,6,5,4,0,47,13,3
-11,-9,-3,22,-4,5,-64,-8,3
3,-15,-12,-17,-9,-6,66,-18,3
18,7,2,0,-1,-4,12,0,3
12,5,2,-11,0,-14,-21,18,3
7,1,-1,2,1,9,29,8,3
-16,1,2,5,7,1,-16,5,3
6,-3,-2,-1,2,0,1,-7,3
12,2,2,1,-5,1,-2,-2,3
-12,-7,0,1,0,-5,-37,-9,3
3,-1,3,18,-4,-4,-10,-6,3
3,0,-13,-37,-8,-6,-18,2,3
-6,7,0,-10,3,8,26,5,3
5,6,6,11,-1,0,-25,-2,3
-1,-7,-6,18,-6,-13,30,-10,3
-13,-8,1,11,-6,-10,-73,3,3
-30,-12,-4,-5,-4,-1,1,-3,3
-41,0,-1,-2,4,11,-8,19,3
45,10,2,-14,6,5,58,-21,3
2,1,3,9,-1,-1,28,-7,3
10,-1,-1,10,-3,-4,-3,-3,3
13,-1,1,6,-4,0,63,12,3
-13,4,9,21,4,1,-32,9,3
-9,1,5,-18,-2,-1,31,5,3
-1,3,-1,-7,-4,-9,-37,-8,3
8,-1,-10,-28,-10,0,15,0,3
0,0,0,-10,1,-2,2,8,3
1,-6,-2,11,1,1,-36,1,3
-21,-8,-3,28,-10,-8,5,-10,3
16,4,7,13,1,-3,-13,-3,3
-7,1,-2,-12,-4,1,-26,1,3
79,4,2,-8,2,-1,34,-50,3
10,2,1,0,5,1,-25,1,3
5,-1,3,6,4,-3,-26,-4,3
1,-3,-2,0,-3,-4,30,-10,3
-27,0,1,6,-1,11,54,15,3
3,0,0,-1,-3,5,10,13,3
40,-2,-1,4,-3,-9,10,-26,3
-29,-5,-4,-21,-4,4,-19,-1,3
-16,0,-1,-19,1,-5,-54,14,3
9,3,5,23,4,2,76,4,3
-11,4,6,-46,3,15,-19,11,3
8,-2,-12,-27,-9,-16,-38,6,3
-31,-4,-7,8,1,-2,34,9,3
-3,-4,-9,-30,-8,-18,-109,-8,3
13,5,8,47,3,11,110,1,3
-24,-10,2,-2,1,0,-81,0,3
0,-24,-18,-20,-5,0,9,1,3
-19,-2,0,15,-1,2,79,-2,3
2,3,-2,28,-4,-7,-79,-5,3
6,10,7,14,2,5,57,17,3
7,11,13,29,5,1,-25,12,3
6,-2,-1,-24,3,-1,21,-9,3
-11,-6,-4,5,-4,3,34,-3,3
9,3,0,10,2,1,10,1,3
0,5,1,-12,-1,4,51,11,3
7,2,3,6,5,7,-61,-10,3
3,-7,-4,-8,-6,-15,-54,2,3
-21,-10,0,2,-1,0,76,-27,3
0,-12,-9,20,-5,-1,-16,-12,3
6,1,-8,-26,-5,-10,-50,6,3
-7,1,2,55,9,6,24,-1,3
11,6,-2,-53,-4,2,8,6,3
3,3,2,-7,-2,1,-14,-1,3
-11,5,5,36,0,6,-11,-19,3
-2,-9,-4,-14,-7,-19,-16,-5,3
4,0,4,27,6,2,1,-6,3
-12,1,-7,-18,0,-2,13,9,3
12,-3,0,-3,0,6,-18,15,3
3,4,3,-20,3,7,56,13,3
21,-1,14,67,0,-5,34,-10,3
0,-1,-18,-47,-14,-14,-76,7,3
-4,2,-3,-16,2,-4,60,19,3
-12,-3,-3,6,4,17,14,9,3
-4,-1,-4,-5,5,-3,36,9,3
-7,-5,8,20,-2,7,41,-10,3
-1,-13,-3,14,-9,-17,-81,-7,3
-6,1,-3,-30,-2,-6,-22,4,3
8,5,-2,-22,5,13,3,4,3
5,15,15,9,6,0,16,9,3
19,9,1,-7,-4,13,43,6,3
-26,-11,-1,-7,-6,-13,-60,-34,3
2,-7,-5,9,-5,-5,-16,-1,3
-13,3,3,16,3,6,-5,4,3
15,2,4,-45,3,2,47,-7,3
21,5,-11,-42,-4,-1,-1,8,3
-7,0,1,6,5,8,-24,9,3
-13,-12,-12,26,-13,-14,-69,-10,3
0,5,10,36,1,-3,-3,1,3
8,2,1,1,1,-1,54,3,3
4,4,-5,-23,-4,1,-67,2,3
0,-2,6,12,10,15,30,0,3
10,-11,-1,-8,1,-10,23,-3,3
-13,-6,-9,-1,0,13,78,-14,3
6,1,-6,-5,-9,-8,-6,13,3
-4,6,6,-3,-1,-1,-41,3,3
-29,-8,-5,-1,3,-5,-17,8,3
33,8,12,10,9,-4,-28,-52,3
8,5,19,8,9,4,-17,-10,3
1,-8,-23,-50,-11,-7,55,-4,3
11,6,0,-27,-6,1,-15,-5,3
-9,-8,-7,5,-5,1,21,26,3
-17,-3,3,34,-3,-3,-21,-3,3
-7,-3,-2,22,-2,-21,-52,-13,3
-26,-6,-1,1,-3,-9,-23,8,3
10,6,7,11,2,-4,-28,18,3
-10,0,-3,-23,0,16,106,-13,3
14,-1,0,8,-6,13,-21,-2,3
4,0,-4,11,-2,-14,-25,-5,3
-19,-5,-3,-3,-4,-5,-12,1,3
27,0,-3,-10,1,-5,-46,-5,3
-6,11,10,-21,6,3,38,-4,3
5,0,-3,8,-3,4,60,-4,3
3,0,0,0,0,1,-42,7,3
-23,-14,-11,-14,-5,-9,-33,-3,3
39,-7,-1,-1,1,-7,35,-39,3
5,4,-1,-18,5,8,-31,3,3
2,-3,-6,19,-16,-9,-25,7,3
16,1,-10,3,-6,3,38,-12,3
-8,2,13,17,6,-4,-66,2,3
-35,3,-2,-12,0,5,24,23,3
11,33,11,-27,7,3,39,-7,3
0,-44,-22,-11,-8,0,41,4,3
-5,2,-4,2,-1,3,7,0,3
-14,-5,6,18,3,9,63,-7,3
-17,-11,-3,-5,3,-1,-18,12,3
-3,12,5,3,1,-13,4,3,3
-6,5,1,-4,1,12,32,11,3
35,0,-2,12,-4,2,-29,-13,3
7,0,-1,1,-2,-6,30,-9,3
-10,1,1,-5,-3,-11,-57,1,3
0,-9,-2,-26,6,0,17,5,3
5,13,0,13,-11,9,56,18,3
-4,-10,2,27,-2,-4,-47,-36,3
-7,-2,-7,-11,-7,14,21,4,3
-11,2,-2,-48,22,19,27,13,3
-13,-15,-13,46,-25,-48,-37,-7,3
23,6,0,-28,2,-1,-80,7,3
21,14,9,17,8,7,20,-1,3
-17,-1,3,29,-7,-3,-63,-12,3
12,0,-11,-58,2,7,55,1,3
7,4,4,9,2,0,68,9,3
-19,5,10,33,-1,-12,-84,-4,3
-12,-4,8,21,-2,3,29,0,3
13,-14,-15,-14,2,3,-41,2,3
-24,-16,-18,-22,-9,-1,-14,-4,3
10,5,4,2,12,15,39,11,3
-21,-1,-1,8,-6,6,8,20,3
25,1,12,35,1,-20,-33,-38,3
7,1,-3,-2,6,16,24,3,3
-3,10,5,-11,0,-6,-62,4,3
7,15,11,-61,21,15,114,26,3
-28,-14,-16,19,-34,-15,-19,-11,3
6,-3,-3,11,-5,-9,-4,2,3
-5,-2,4,4,-3,-5,-4,-17,3
19,4,22,13,12,-2,-61,-16,3
8,4,-22,-83,9,21,39,37,3
-16,-6,-4,15,-13,-23,-84,-11,3
19,6,1,3,2,12,53,-4,3
3,7,13,43,1,-12,-4,-9,3
-5,-12,-6,-39,3,8,-1,0,3
-7,-18,-8,-15,-6,9,26,-7,3
8,0,-9,-11,-4,-6,-34,2,3
1,0,-8,20,-15,-11,-27,-3,3
7,2,14,33,11,5,-23,-1,3
6,1,-4,-11,0,1,22,17,3
-6,0,6,14,3,4,-37,-8,3
30,11,3,-8,-3,-14,-19,-1,3
-19,4,-1,-34,-8,27,57,-17,3
6,4,14,67,-6,-37,-79,8,3
0,10,-3,-31,1,0,-3,9,3
-9,-7,-5,-30,2,1,16,9,3
0,-18,-21,-87,11,7,-5,-3,3
-16,-1,-3,-1,0,-3,76,9,3
-5,-5,-4,26,-14,-23,-58,-1,3
18,-1,4,21,-1,3,-8,-11,3
6,14,23,44,8,-8,-56,9,3
-38,2,4,-30,9,19,26,11,3
24,-13,-13,-5,5,-5,-12,-24,3
-49,-12,-18,-6,-16,7,36,15,3
47,13,13,45,2,-19,-113,-45,3
5,6,5,-4,2,3,-30,6,3
-11,-10,-5,-14,-3,6,65,-10,3
-12,-18,-18,-9,-5,-6,-101,-8,3
-7,0,3,52,-9,15,112,2,3
9,9,14,1,8,13,-49,-6,3
-3,5,-7,-65,2,-2,-4,-14,3
20,9,3,12,-1,-9,4,-9,3
-15,1,-6,-43,-7,-4,-39,5,3
5,-10,-24,-49,-9,18,111,-7,3
-41,-16,1,37,9,-17,12,4,3
-4,1,5,19,9,6,28,-13,3
5,4,16,81,1,-10,-39,2,3
-8,4,-10,-26,-9,5,20,1,3
33,2,-10,-35,-10,7,15,-9,3
-39,-2,-1,7,-1,6,-1,19,3
-24,-9,-2,11,13,0,1,21,3
0,1,13,24,7,4,20,5,3
4,6,7,10,3,-1,-85,4,3
18,-7,-14,-47,-10,-3,46,-15,3
-31,-11,-1,13,-5,-34,-84,-6,3
-1,-5,-2,9,-6,-11,15,-2,3
-22,8,2,-14,1,10,-9,41,3
25,16,12,11,14,5,-51,-7,3
-1,1,-4,-17,1,12,81,6,3
-3,-9,-5,61,-14,-12,4,0,3
11,-10,-20,-75,-11,-14,-43,-14,3
-1,6,9,17,7,-1,-36,-15,3
-13,4,-7,-30,9,6,0,15,3
-12,-1,16,23,11,4,-3,-9,3
84,-7,-23,-7,-24,-12,-1,-53,3
-2,-11,-13,-6,-8,-6,10,8,3
-53,0,-4,-7,10,12,-9,4,3
12,9,9,2,8,9,72,11,3
-37,-4,7,25,-1,-12,-77,33,3
14,0,1,-9,-1,4,38,-3,3
20,4,4,24,-10,-2,-25,-31,3
-20,-4,-9,-13,-3,9,-26,2,3
52,11,12,-4,16,16,16,3,3
5,-7,-10,56,-17,-14,45,-18,3
2,-1,5,-42,-2,6,-17,4,3
-7,-4,-16,-65,3,-7,-91,-9,3
20,10,17,20,6,10,107,10,3
2,-7,-8,-2,-6,0,-70,4,3
21,-2,3,14,2,-7,76,-9,3
18,1,9,5,6,0,-79,-25,3
-48,0,1,21,-8,14,119,7,3
7,0,-1,0,-4,-9,-28,6,3
24,5,7,-3,3,2,-42,11,3
-6,-1,-6,-24,-2,9,106,12,3
-28,-8,-1,44,-11,-15,-82,3,3
-4,4,3,-25,3,-9,14,14,3
6,6,6,-11,3,1,32,5,3
10,1,7,-12,3,-2,-8,-1,3
-15,0,2,-35,5,9,45,-1,3
-3,-14,-28,-42,-19,-10,-26,7,3
-7,0,-10,-30,-6,-2,-10,10,3
36,13,13,43,5,7,-5,-8,3
42,2,5,36,6,3,30,-36,3
-19,-1,1,-17,-2,4,-2,6,3
13,1,3,40,1,5,2,-12,3
-11,-3,-8,-29,6,-11,-50,10,3
-23,-9,-6,20,-17,-22,-7,3,3
0,2,5,-2,4,-1,33,-9,3
-53,-5,-1,9,-3,18,-4,6,3
15,4,3,-8,5,-3,-52,12,3
-15,-6,-5,-8,3,16,62,4,3
-12,-9,-4,19,-5,-23,-56,-7,3
-4,0,0,-3,0,-12,-6,1,3
-8,-9,-8,8,-13,10,97,-13,3
-15,5,10,29,10,-6,-37,2,3
5,7,-5,-17,1,12,68,-2,3
29,6,4,-9,5,10,55,1,3
-17,-8,-2,3,-4,-25,-73,-6,3
0,-3,3,39,-3,8,-50,4,3
-20,-7,1,-15,0,5,23,-8,3
26,3,-20,-54,-7,-8,-25,12,3
-19,6,7,19,7,8,28,-13,3
-28,-5,-14,-54,-2,5,17,9,3
3,0,15,56,11,3,-1,-11,3
-9,-6,4,40,-2,-1,0,-11,3
26,-6,-17,-45,-7,0,28,16,3
-18,2,12,26,-2,-1,-9,-4,3
15,2,1,-1,2,-4,-7,-2,3
-1,1,4,7,-2,2,29,3,3
1,3,5,27,-1,-15,-101,7,3
-9,-7,-5,-36,3,-5,78,-8,3
12,2,-4,0,-3,21,53,13,3
-3,1,0,7,2,-1,-20,-1,3
0,2,10,5,4,5,6,3,3
2,4,4,-22,10,-4,-74,-8,3
-17,-11,-12,12,-2,-13,-42,7,3
-22,-17,-17,-16,-7,0,68,-7,3
18,-3,-11,9,-11,0,0,1,3
0,6,10,2,8,-5,-26,3,3
10,5,0,-4,-7,12,31,-7,3
19,2,-5,-21,-4,5,46,-15,3
-2,-3,-3,5,-1,-15,-63,-13,3
-7,0,-5,-32,-4,5,80,10,3
13,4,10,9,10,0,-59,-3,3
7,-2,7,21,4,3,25,-5,3
-16,-2,-5,0,-10,-19,-64,1,3
10,4,3,4,2,6,21,4,3
6,-4,-2,-27,1,5,25,-12,3
-10,-3,3,19,0,1,-15,3,3
16,2,0,-5,0,13,75,-13,3
-6,4,-1,-3,4,-6,3,0,3
-4,-3,0,-1,-3,-2,8,7,3
5,5,6,28,-2,-14,-32,-30,3
-8,-3,1,-14,6,9,55,10,3
4,-17,-15,-15,-15,-13,-50,-37,3
-6,-6,-11,-26,-4,6,27,3,3
16,3,-4,-8,-5,-10,-54,0,3
24,7,8,2,7,0,3,-10,3
-5,1,6,29,-2,0,-16,3,3
-6,1,5,15,5,12,38,-7,3
-22,-5,-2,7,-5,-18,-104,21,3
-10,-3,-3,-4,-3,-5,56,-3,3
7,6,3,4,4,2,-17,1,3
1,1,1,-4,-2,2,33,-11,3
-15,0,2,-13,2,9,50,27,3
-11,-9,-5,21,-13,-15,-33,-13,3
1,-1,16,74,5,-1,-80,-11,3
17,3,1,30,8,-2,-2,2,3
13,-4,-41,-94,-19,-5,-48,0,3
-18,-3,0,27,4,14,65,3,3
-13,8,-3,-13,-5,-9,22,7,3
31,-4,10,30,6,-7,-58,-28,3
3,2,12,50,7,11,63,2,3
-5,-10,-8,-22,-2,-1,-46,-6,3
-7,-8,-4,-10,-3,-5,42,7,3
-27,1,-1,-14,-7,-8,-26,6,3
11,3,7,5,5,-1,-33,-7,3
6,6,0,-15,4,19,54,9,3
-4,2,2,-8,-2,-9,-62,0,3
-42,-8,-9,-8,-9,-10,35,17,3
26,-1,0,30,-3,4,40,-14,3
-3,6,5,-12,1,-5,-31,5,3
-2,2,2,1,3,-8,-52,0,3
-4,-7,-11,-33,-11,-4,-51,-9,3
2,1,21,91,13,3,6,-28,3
0,4,-2,-41,-5,1,20,-2,3
-16,-11,-25,-30,-5,0,-45,-7,3
2,-1,-10,-16,-8,9,24,8,3
1,4,6,14,6,-4,-16,1,3
-2,-1,10,43,-1,9,26,-17,3
8,-1,1,-2,0,9,50,7,3
14,7,5,-9,0,-10,52,2,3
-6,-6,2,-8,3,4,-10,11,3
-3,-2,-6,6,-5,0,1,-6,3
2,2,0,-22,3,13,27,19,3
7,2,3,5,2,1,29,-14,3
-1,5,3,-8,-3,3,-11,2,3
-3,-2,-3,-2,-3,-24,-43,-8,3
0,-4,-3,-7,0,10,10,-13,3
1,2,7,10,6,3,-29,2,3
7,1,-2,-20,-2,-2,-5,4,3
-22,0,1,-6,-4,-4,15,8,3
-3,-2,2,34,12,18,31,-20,3
-6,0,-8,-38,-15,-12,-24,20,3
-5,-3,-4,-21,0,-3,-54,-9,3
19,-3,-2,-7,-4,-13,84,2,3
-11,-1,1,28,-2,-6,-76,-10,3
-15,0,7,24,-1,5,10,10,3
-8,-6,-9,-7,-8,-3,36,13,3
6,1,1,8,2,7,-98,-10,3
7,3,3,-19,2,1,70,16,3
20,6,0,12,8,2,-43,-14,3
-1,6,4,-34,2,-21,2,11,3
-9,-6,4,18,-4,21,108,-2,3
10,-5,-17,-17,-11,-9,-2,-3,3
-15,-3,-4,-8,-1,2,-26,2,3
52,1,4,18,6,6,48,-20,3
2,4,6,-21,9,-2,-38,3,3
7,1,1,2,-2,-18,15,8,3
-6,-7,-7,1,-8,8,104,-11,3
3,4,-2,-5,2,5,-21,13,3
5,-2,-3,-16,0,-5,2,3,3
-2,-4,-1,-21,1,7,-14,0,3
8,0,4,9,5,-9,-31,-15,3
-15,-6,-3,14,-7,2,-15,3,3
8,2,-1,-2,-3,-8,15,-1,3
13,7,5,-2,-2,-27,-46,7,3
14,3,0,-6,-1,23,37,-7,3
0,-7,-4,-10,-2,7,67,3,3
-2,-1,-4,4,4,-1,-20,-9,3
-3,-1,0,4,-1,2,-13,-12,3
-2,-1,-5,-22,-5,-6,22,2,3
-3,3,16,95,5,5,-32,-29,3
-12,-6,-23,-85,-17,-22,-77,-20,3
7,-3,-1,-1,0,16,59,2,3
15,-1,5,23,5,-7,15,12,3
-40,-4,-7,-21,-2,-3,0,8,3
4,4,11,40,6,7,-39,3,3
20,-2,1,2,-2,-3,18,-8,3
-15,4,0,-13,-2,-11,-54,-1,3
-1,2,1,-5,2,-5,4,7,3
-8,-8,-2,10,0,16,13,5,3
-2,-2,-5,-18,-4,3,105,1,3
4,-6,-2,20,-2,-5,-41,-11,3
11,6,0,-15,0,-21,-87,9,3
-24,-8,-8,-2,-6,16,68,-31,3
17,-1,-6,3,-2,18,-3,2,3
-7,4,11,11,4,-20,-11,-5,3
-53,-3,-3,14,6,12,10,16,3
28,0,-13,-42,0,11,-11,-7,3
-14,-6,-4,-27,-2,-11,-22,0,3
-14,-7,-10,-14,-10,-10,73,11,3
19,4,3,4,-11,-3,-63,-2,3
-3,4,12,24,17,9,70,15,3
-3,1,-7,6,-11,-14,-26,2,3
19,10,6,-5,4,3,-8,7,3
18,-5,2,-14,-2,-4,50,-26,3
-6,-1,0,19,-1,-5,-13,6,3
6,7,6,2,3,-4,-40,16,3
9,-4,-7,-10,-3,0,3,-6,3
-8,-5,-5,-10,-7,-1,6,12,3
-3,-5,-2,9,-3,-9,-8,-9,3
-15,0,4,6,3,-3,-36,6,3
-11,3,4,39,5,12,49,4,3
10,3,-1,-52,1,4,-20,-2,3
2,0,-5,-11,6,8,65,26,3
-22,-14,-14,27,-30,-39,117,-10,3
-3,-4,-4,14,-2,9,49,4,3
6,2,14,42,6,-3,48,-12,3
0,3,-10,-15,-3,-8,-35,5,3
1,0,0,-49,8,13,7,-2,3
7,8,3,1,-2,-2,-46,1,3
-4,-10,-18,-13,-7,-8,5,-10,3
8,-12,6,40,-2,-8,-39,-11,3
22,-1,0,13,1,8,-32,-18,3
-47,-7,-4,-22,0,-2,-16,50,3
6,6,3,1,0,8,-6,0,3
10,11,8,9,7,-2,-28,4,3
-7,1,2,-15,-2,-2,23,-15,3
3,0,-3,6,-3,2,5,-8,3
-4,-4,-5,-4,-4,0,26,6,3
-2,-1,1,2,-2,-19,-88,-3,3
-7,3,5,-15,5,5,60,18,3
7,-2,-1,17,-3,5,23,-14,3
0,-3,-3,0,-3,-16,8,-6,3
-6,2,0,-17,-1,8,-12,6,3
0,5,6,19,1,3,33,-10,3
-11,-12,-9,-5,-5,-1,-82,-3,3
4,-7,-10,-25,-7,2,25,1,3
-49,-1,3,25,2,21,83,26,3
2,8,2,7,-3,-22,-76,5,3
-17,-1,10,-6,13,13,43,-10,3
0,-2,-12,-29,-5,-9,-69,2,3
-8,-11,-8,-1,-5,-3,27,6,3
-12,-5,0,4,3,10,-60,-22,3
12,4,4,15,0,2,42,-7,3
8,12,13,21,5,-5,-4,6,3
21,0,-3,-26,-11,-18,-4,-9,3
-6,-5,2,10,5,11,-35,-25,3
15,-1,-2,-21,3,-1,58,6,3
-3,-2,-2,7,-1,7,-29,-5,3
7,5,3,3,0,-1,-6,-30,3
31,5,3,-2,0,0,3,1,3
-9,1,1,-18,1,-4,-33,-5,3
1,-5,0,19,-9,-9,54,-6,3
-13,-5,-1,-5,0,-15,-55,3,3
-8,-7,-19,-15,3,5,16,17,3
3,-1,-5,-22,-6,9,44,-21,3
17,7,4,6,-1,-14,-9,15,3
11,-1,8,64,-4,-19,-71,-25,3
-7,-2,-4,-21,-3,6,-36,3,3
4,-2,-5,-24,6,3,-38,7,3
-14,-8,-4,7,-3,8,-11,-5,3
11,3,1,-21,1,10,53,4,3
-30,5,9,13,6,-8,26,17,3
5,5,0,12,-7,-12,35,1,3
4,13,13,3,9,11,-17,0,3
2,-2,2,6,0,-3,18,14,3
-6,-13,-13,-19,-7,-8,7,10,3
-9,-9,-3,-5,7,12,-47,-24,3
-36,-3,3,35,-1,-6,51,6,3
-12,10,-1,-33,-1,6,87,14,3
22,5,-20,-21,-30,-4,-8,11,3
13,5,-4,-7,14,22,0,4,3
-38,-21,17,70,18,-34,-18,-28,3
29,-14,-6,-5,5,-3,13,-20,3
-15,-14,-10,-77,-3,13,-12,-5,3
13,12,-4,38,-14,-14,5,-6,3
0,37,85,49,28,26,-4,12,3
10,10,-46,-93,-25,-16,-45,14,3
28,-22,-55,28,-27,-1,14,11,3
10,-3,-5,66,-3,-6,-64,7,3
9,-8,-17,64,-3,10,10,-14,3
-4,12,58,122,18,-24,-53,-12,3
-38,11,27,4,16,14,10,9,3
-6,-3,-4,-40,-5,-9,-38,5,3
8,-3,-15,-48,-4,-7,-35,0,3
-30,-2,-3,-43,0,35,72,10,3
4,-1,-1,9,7,-20,8,-31,3
-22,-8,0,22,-14,-18,0,5,3
-4,-7,-18,-39,-9,12,51,-1,3
17,4,1,-12,9,18,-25,18,3
-15,5,16,26,11,-2,58,-2,3
7,1,13,22,-2,16,61,2,3
0,-18,-32,-51,-13,-3,-12,1,3
5,-4,-10,13,-8,-14,-113,-21,3
7,13,24,21,14,5,28,-2,3
-26,6,3,-12,3,-4,18,25,3
17,-14,-24,-33,-8,3,33,-7,3
-10,-5,13,19,6,16,25,3,3
10,3,2,-10,-4,-25,-60,-12,3
5,-4,-11,-19,-9,-22,-46,-10,3
13,4,-5,-12,-1,9,-2,-2,3
14,1,22,54,18,11,-30,-25,3
11,-10,-15,10,-18,0,91,-23,3
6,-11,-21,-63,-19,-29,-44,-12,3
10,7,7,-6,7,1,-44,-12,3
10,0,-13,-7,-9,-2,100,-14,3
37,11,23,25,11,11,-79,-12,3
-14,2,10,36,13,6,-8,1,3
-21,1,-5,-16,-3,5,93,14,3
-6,-1,-2,-1,0,-15,-94,-7,3
-7,5,5,16,-5,23,77,6,3
8,-3,4,6,5,-1,-40,-8,3
-10,-7,-9,-23,-4,0,19,25,3
11,-5,-8,-10,-5,33,87,-7,3
-14,0,3,40,-7,-60,-10,-13,3
9,1,9,1,5,17,57,12,3
-5,-3,-8,-31,-4,-4,8,-6,3
5,-6,-14,-8,-9,-21,-10,11,3
13,1,-4,-56,-1,10,-59,6,3
15,13,29,83,12,13,66,-21,3
8,0,-15,-63,-8,-9,-78,-1,3
-8,-3,-5,-2,-4,2,1,-5,3
-15,-8,1,1,5,7,43,8,3
18,3,1,16,5,-2,-9,-20,3
5,3,7,36,-1,8,30,-2,3
14,1,-5,-2,-14,-24,5,-5,3
-4,5,6,10,7,-2,-13,27,3
48,0,0,-31,4,28,51,-10,3
45,3,3,10,2,-13,-90,-19,3
-9,-1,1,-26,1,9,127,14,3
1,-4,0,46,2,-16,-122,12,3
-20,-3,-2,-14,-7,-10,3,5,3
-7,1,2,-4,3,14,27,-6,3
7,5,-2,12,-6,-23,-79,11,3
1,0,3,-1,-4,10,-20,-8,3
-14,-6,-24,-64,-6,-6,-43,6,3
-12,-6,-1,16,4,8,30,9,3
-32,-5,4,50,0,-13,-27,10,3
-9,-8,1,-29,5,16,8,-9,3
-24,-5,-5,2,-3,-7,5,11,3
8,8,5,25,-4,-4,-6,9,3
6,8,10,-21,8,9,24,7,3
-5,-3,-3,5,-15,6,58,0,3
0,-1,-1,-3,-3,-9,-2,7,3
-2,5,7,18,-1,-1,-19,-3,3
-15,1,-6,-47,6,-4,-79,1,3
13,0,-4,1,0,-3,77,8,3
-12,0,3,-12,-2,-3,-16,1,3
7,-2,0,14,-1,3,57,7,3
-10,-2,-2,-12,3,12,-8,-10,3
-11,2,11,32,11,0,-29,2,3
-10,-6,-17,-57,-11,-6,31,7,3
7,1,2,10,-6,-15,28,-8,3
9,0,-6,-25,-6,-6,-84,2,3
0,-2,11,21,12,18,40,-13,3
1,-3,-7,8,-2,-8,-38,9,3
-28,-3,-1,4,1,4,7,-15,3
-2,-2,-5,-19,-4,7,73,0,3
8,8,2,-5,0,-5,-60,0,3
-43,-7,2,1,-1,-4,5,5,3
10,-4,-10,-6,-8,-11,-18,8,3
-3,1,6,16,-1,9,53,5,3
-2,7,0,-20,-1,-8,-73,-3,3
2,-1,1,-2,2,-6,-44,7,3
-23,-9,-5,-5,-6,-5,21,9,3
-4,-16,-8,4,0,8,47,3,3
-1,-2,-6,-14,-2,5,6,-4,3
17,8,11,40,4,2,-12,-13,3
2,6,8,-40,3,3,4,-6,3
-4,-2,-7,9,-4,4,-25,-8,3
-9,-3,-3,-17,-7,12,78,-7,3
10,2,-5,-3,-5,-39,-82,-3,3
18,0,-5,7,-5,5,97,-17,3
-8,0,8,44,6,5,56,-6,3
-5,-4,-10,-23,-5,-5,-67,1,3
8,1,7,16,0,13,-1,-7,3
-12,-6,-5,-6,-1,0,2,4,3
11,6,5,4,0,6,-41,-10,3
-5,-4,-4,1,1,-15,-26,-3,3
4,3,3,-36,5,21,40,-2,3
-10,-8,-11,11,-8,-9,-2,-16,3
-1,-1,0,-12,-1,-10,-73,11,3
-9,-2,3,-1,5,-7,-40,-19,3
9,0,-5,16,-8,27,115,0,3
16,8,4,10,-1,-23,-102,0,3
-5,-2,1,-8,-3,-10,19,-5,3
-11,-4,4,20,5,15,48,-1,3
-2,-6,-6,-17,-3,-5,-11,2,3
-13,7,6,2,-2,0,-19,4,3
13,6,6,35,6,-1,72,-3,3
1,3,-7,-49,-11,-5,-36,6,3
28,5,-6,-21,-5,1,24,-7,3
5,-9,-9,-8,-4,1,9,-18,3
-4,-10,0,10,-2,-10,-57,-4,3
-1,-2,-2,28,-1,7,38,2,3
-13,2,8,37,-1,-13,3,-3,3
20,9,7,-10,9,17,-12,12,3
-5,0,-5,-27,-1,-9,-33,-17,3
7,-4,-7,-6,-2,14,127,12,3
-12,-3,-2,14,-7,-29,-80,2,3
-13,-3,0,-5,8,10,7,8,3
2,-2,1,-2,5,3,35,7,3
-8,-2,2,-5,1,1,-21,-6,3
8,4,4,12,9,4,4,4,3
-12,0,4,31,-7,16,74,0,3
-3,-4,-19,-21,-18,4,48,20,3
11,4,5,-9,4,-1,2,-17,3
26,2,3,-16,6,6,-9,-9,3
-1,-1,-4,-13,5,2,-20,1,3
9,-1,-8,-12,-6,-1,-12,1,3
-1,-4,-1,5,6,-6,-29,16,3
-20,-2,15,14,8,20,71,3,3
13,3,-7,-5,-6,-1,-84,4,3
5,5,5,21,-8,1,95,-10,3
-6,-1,-3,2,-2,9,-1,7,3
9,-1,0,8,7,-1,-17,8,3
-28,-8,-4,-8,-5,-20,-22,-12,3
12,1,-2,13,-8,0,22,-3,3
23,6,6,-2,6,7,48,8,3
-5,0,-5,3,-3,5,21,-4,3
10,4,2,-6,1,-6,-20,10,3
-13,1,3,-2,4,1,-34,-19,3
1,-2,1,11,-4,-9,-26,1,3
-45,-5,-6,-34,-4,-2,-10,24,3
-1,-2,4,1,-3,-3,10,1,3
-3,-4,1,-5,6,2,-8,7,3
5,-1,-1,1,1,9,-21,-8,3
-16,-1,-3,5,-5,-9,29,18,3
19,-5,-4,-11,-5,-12,-52,-13,3
3,-2,0,-16,-1,-6,-12,1,3
-1,-3,-3,-3,0,-1,32,-5,3
-15,-13,-9,7,0,2,81,-4,3
-4,-1,-2,-3,-1,10,41,-5,3
25,10,8,11,7,-4,-33,-11,3
20,7,2,4,-1,-3,-22,-24,3
9,9,9,4,0,1,-20,-9,3
20,4,1,1,1,-7,43,-20,3
-26,-11,-9,5,-8,-7,-69,15,3
37,1,-1,-8,-4,1,52,-6,3
31,0,3,18,3,-1,-68,-19,3
-14,3,1,-12,3,-4,46,5,3
5,7,2,-19,0,10,-11,-10,3
-16,-4,-7,20,-6,-12,-24,10,3
8,-14,-13,-46,-8,1,66,-12,3
-11,-7,-4,22,0,-7,-42,-7,3
-17,3,6,-6,3,-9,-2,18,3
-16,-1,-6,15,-7,-1,53,9,3
2,10,6,-2,-1,5,-5,-23,3
25,1,-2,-7,1,0,-1,9,3
-14,-8,1,-4,0,7,83,-10,3
-13,-6,-4,14,2,-2,-70,3,3
-1,-3,-3,11,-4,-12,-24,-5,3
2,3,2,-3,-1,-5,33,2,3
12,4,1,-2,6,-6,-54,-1,3
-10,-1,3,0,-4,25,116,-13,3
0,3,-13,11,-4,-5,-35,5,3
-4,-2,6,30,3,4,-36,9,3
-11,-14,-8,-37,-7,-6,-30,-3,3
-47,-9,-14,-15,-4,-4,1,26,3
15,0,0,4,4,1,-22,10,3
-8,-1,2,12,-1,6,20,5,3
30,4,0,6,1,1,11,-7,3
1,5,6,-3,2,-11,-42,13,3
31,3,5,7,3,5,3,-6,3
-11,0,-3,-9,-2,2,-48,3,3
9,1,2,4,-1,1,31,-3,3
4,-2,1,-21,2,-17,-124,3,3
-22,-9,-4,14,-5,3,94,-27,3
4,2,7,1,9,24,88,15,3
-1,0,-7,7,-9,-16,-71,2,3
-5,-1,-5,-23,0,14,42,-20,3
0,-11,-7,9,-4,-2,-60,0,3
-17,-7,-13,-17,-5,-32,-67,5,3
-3,2,10,27,2,4,85,-10,3
8,-2,-3,-1,0,-12,-47,7,3
-11,6,3,-8,-5,-9,6,9,3
-3,-2,-4,26,-1,4,49,1,3
0,3,-4,-33,-2,11,-23,1,3
18,6,4,0,1,-5,-6,-7,3
2,1,6,6,3,3,4,6,3
-2,-5,-3,0,-6,-3,8,-4,3
-13,-3,-1,19,4,2,-1,9,3
-4,3,5,-2,3,3,29,-13,3
-1,6,2,-7,0,10,57,15,3
-2,3,2,-20,-2,-14,25,-17,3
3,-9,-7,11,-3,0,-9,-5,3
6,-14,-8,-1,-6,8,55,-13,3
10,-3,-2,6,2,-1,-28,3,3
-38,3,1,-5,4,12,-5,18,3
10,11,9,1,4,-1,-43,5,3
47,10,2,-16,-1,4,-1,-1,3
-22,-9,-6,-9,-4,12,80,-1,3
-6,-6,-7,-5,-9,-12,-7,-14,3
-11,0,4,32,3,-12,-52,7,3
-6,3,12,-23,5,6,4,-3,3
1,4,-3,1,4,3,-16,5,3
30,7,-3,-62,-12,-2,-7,7,3
-9,-4,-6,-8,-2,-2,34,-7,3
-13,-10,-3,25,0,-8,-6,0,3
-1,-3,6,20,0,-8,-39,-7,3
-2,-6,-2,10,2,2,-4,-8,3
14,10,9,14,2,1,11,-6,3
-27,-1,-2,0,3,5,-19,-4,3
-2,1,1,-27,4,-6,-93,20,3
23,-6,-10,6,-4,23,87,-12,3
-22,-14,-14,-9,-12,0,20,7,3
2,-5,3,20,10,2,-19,11,3
-12,2,2,-3,-3,-5,-8,-17,3
7,5,4,-11,9,5,5,2,3
26,1,4,-2,4,-4,33,-8,3
-5,-5,-4,4,-8,-8,17,-5,3
2,0,2,27,1,-3,2,1,3
-13,-3,-5,-21,-4,-3,-51,0,3
4,5,5,-11,-2,3,33,-5,3
3,3,-2,-12,-2,-1,7,17,3
3,2,-3,-8,1,0,-86,-22,3
7,-7,0,27,-12,21,92,-8,3
-46,-2,-5,-1,-3,5,13,50,3
45,2,0,-3,6,0,33,-2,3
2,4,5,-2,5,1,-9,5,3
7,4,0,-16,1,-7,-54,-6,3
-40,-10,-5,-11,-3,-3,-35,8,3
-11,0,1,6,-8,-5,-29,7,3
-7,1,-1,4,-3,-1,18,-1,3
4,2,3,19,4,-6,-27,4,3
8,-1,6,4,0,4,53,-15,3
-9,3,-6,9,-5,-20,-97,-3,3
5,-4,-11,-36,-10,-2,57,-11,3
-13,-10,-7,-4,7,-11,-55,-3,3
-7,-8,-8,0,-7,11,14,-24,3
-11,-4,-4,17,-6,-5,-28,-8,3
8,4,3,14,-1,-5,-4,1,3
6,9,7,-4,3,0,-8,10,3
16,5,3,-11,6,4,-26,-5,3
-3,-1,-5,-19,-2,-1,18,-3,3
-5,-2,-2,5,-1,-20,-63,8,3
-3,-4,1,13,0,-2,0,-10,3
3,0,4,-2,6,0,-5,-9,3
21,4,-2,-23,-9,4,29,1,3
-5,-5,-4,-13,-4,10,32,10,3
2,-2,3,4,1,-6,-26,-7,3
-17,0,-2,7,3,-5,-30,28,3
1,-1,0,12,0,17,57,9,3
21,0,0,0,0,-11,-46,-16,3
11,13,24,69,5,4,31,1,3
15,-14,-30,-72,-7,1,14,7,3
-21,-7,-8,-7,3,-7,-3,7,3
-5,-3,0,2,-3,-2,-25,3,3
-1,1,-3,9,4,-2,-13,2,3
14,11,10,9,1,-7,55,-11,3
-6,3,5,9,-1,6,51,-9,3
-10,-5,0,10,-4,0,7,-7,3
2,-5,-6,-9,-3,-1,-8,-2,3
-3,3,0,9,0,-5,-29,-9,3
-7,-4,-5,-20,-1,-5,-6,-11,3
14,1,1,-2,3,11,55,16,3
-3,-2,-3,-18,-1,14,25,-7,3
-13,-3,3,6,-3,-19,-30,-21,3
4,3,0,38,-5,8,24,11,3
4,6,8,6,-3,1,-2,4,3
-6,-1,-9,-62,4,8,24,3,3
11,-2,-3,9,2,1,-61,-8,3
-28,4,9,21,-4,-18,-54,18,3
8,-5,7,13,12,10,29,-8,3
-14,-3,8,25,-4,-10,-18,3,3
9,-3,-27,-79,-17,3,43,8,3
-33,-4,-3,1,0,-11,-56,1,3
-6,-4,-9,-2,-2,10,84,0,3
-2,1,11,46,-1,-22,-76,-14,3
23,5,11,22,5,6,115,-4,3
30,6,3,-6,3,8,35,-7,3
14,4,1,0,-1,-3,-17,-6,3
-4,-6,-9,-18,-2,5,8,-7,3
-7,1,2,11,0,1,-1,-2,3
6,-7,-5,-17,-2,-12,-53,-7,3
-8,2,-1,8,-5,-3,8,-12,3
5,6,-7,-16,-3,-3,24,15,3
-22,-4,0,2,-1,4,-28,7,3
-3,-8,-1,8,1,19,44,-8,3
2,-3,-3,2,-2,-18,-44,-6,3
13,-3,-9,-16,-9,5,30,-5,3
1,5,10,26,7,-1,-18,-1,3
9,0,6,19,6,7,19,-10,3
-15,-4,-13,-49,-13,22,71,-2,3
9,4,-7,-14,14,-16,-44,13,3
-6,3,4,23,0,6,15,-22,3
1,-11,-7,2,-6,-19,6,-9,3
-3,0,7,6,0,2,7,4,3
-11,-1,-3,-7,-1,14,-4,-8,3
13,-3,-6,-17,-5,-1,8,-1,3
0,11,13,22,-2,-7,-29,-3,3
13,13,-7,3,-4,-8,-24,-33,3
39,-30,-2,3,-7,-4,4,-10,3
9,-5,-18,-52,-4,-9,-34,2,3
8,-11,-14,-26,-1,5,1,-13,3
1,-6,6,31,4,-8,36,5,3
-6,12,12,31,1,6,1,-6,3
3,3,6,25,1,6,52,-6,3
10,10,8,11,2,-2,-14,9,3
-7,11,5,-2,2,4,-21,19,3
11,0,-7,-20,-4,2,26,-13,3
-23,-16,-4,0,-2,-2,-29,2,3
-12,2,0,-11,1,5,22,3,3
-61,-4,0,3,-3,-8,48,48,3
13,1,-7,-9,-8,1,32,3,3
23,15,8,-20,11,3,-48,5,3
-14,-2,-2,-13,-3,-16,-2,-4,3
0,-16,-12,-7,-1,17,23,7,3
-23,-10,1,24,-3,0,0,-3,3
-16,-1,4,4,-2,3,-17,-1,3
-43,7,0,8,4,4,-1,14,3
47,3,0,-34,5,-7,-37,-19,3
-14,1,-6,-18,-4,8,-11,9,3
13,-4,2,25,0,-10,-41,-3,3
0,4,15,27,6,1,8,-1,3
-4,-5,-14,-5,-1,-4,-45,-6,3
-6,5,-6,-55,-11,-6,49,3,3
7,3,-6,-27,2,-1,-45,3,3
18,-3,-6,21,-13,-2,3,-11,3
1,-2,9,32,7,3,-13,-5,3
-4,-7,4,32,7,2,6,-10,3
-3,5,5,11,-4,1,35,-3,3
11,-2,-5,-28,0,0,0,0,3
0,1,5,6,-2,0,-11,-11,3
-12,4,-5,-10,1,-5,-16,1,3
-5,-4,-2,14,1,3,15,5,3
8,-2,-7,-2,-3,-20,-63,-10,3
-3,3,0,-4,-7,0,11,-4,3
5,3,0,3,-2,-12,-5,-7,3
1,-5,5,13,5,4,5,8,3
-8,-7,2,21,2,5,-9,-12,3
-2,-4,-8,-21,-8,14,36,-18,3
-8,6,-5,-44,-5,-8,-12,32,3
-77,-1,13,35,2,0,16,14,3
72,7,17,65,-3,0,-5,-12,3
-12,-4,-11,-73,-10,-3,19,6,3
-3,-11,-37,-66,2,1,-10,19,3
10,0,-3,12,34,25,0,-8,3
-23,-4,3,8,6,3,103,12,3
18,10,22,70,14,-12,-76,-9,3
18,13,23,38,-9,3,-11,-9,3
29,-3,-8,-18,-21,-23,-5,-13,3
-4,-7,-5,-19,0,8,-16,11,3
-11,-8,-9,4,-14,-2,-27,7,3
85,9,4,4,0,-18,35,-88,3
16,0,-1,12,0,-2,-38,-12,3
-16,-1,-6,-29,1,3,-18,5,3
3,-6,-7,-17,-1,4,46,13,3
-48,-9,4,17,0,0,-9,12,3
-19,7,11,59,-8,-12,2,-27,3
81,5,11,-13,18,16,79,-40,3
-12,2,-26,-67,-15,-18,2,5,3
17,-9,-10,-21,4,8,-23,9,3
-2,-13,-16,12,-16,-14,82,-11,3
-30,0,-6,12,-13,-3,-44,19,3
0,14,33,94,12,-10,-107,-3,3
-42,-6,13,55,3,-8,46,7,3
5,0,-30,-108,-14,6,1,17,3
-22,5,-3,22,-1,3,19,-10,3
11,-3,0,-3,7,-9,-11,9,3
-9,-4,10,30,-6,1,-50,2,3
-13,-11,15,14,6,-9,-14,-2,3
-7,-4,-23,-58,-12,0,-9,-2,3
8,4,-1,7,12,-6,25,11,3
-3,6,3,-5,2,3,-4,2,3
17,20,42,109,26,5,-24,-3,3
22,29,-31,-119,-90,2,25,20,3
16,41,-6,-57,-43,118,81,-41,3
-68,-6,5,74,95,-45,7,19,3
-35,-80,-13,51,35,5,-46,23,3
-97,-85,-20,31,28,36,-12,19,3
78,-46,-27,-35,-104,-128,-47,47,3
-17,33,2,-63,-88,68,23,-21,3
113,64,38,31,-11,21,65,-92,3
-35,32,32,-82,9,3,55,-28,3
-1,15,42,23,42,63,26,-22,3
15,-15,-18,-76,-19,-85,-25,-11,3
-37,-32,-128,-128,-69,-24,-2,49,3
46,27,-3,115,10,33,54,8,3
-9,-6,1,110,24,-62,-9,-36,3
4,2,34,127,28,17,13,8,3
-29,10,57,-14,20,8,0,-11,3
34,0,-9,-92,-10,-14,-43,20,3
-25,1,2,-1,32,6,-27,0,3
2,-17,0,-1,-14,2,-31,7,3
-18,-10,-8,-29,-28,7,-14,1,3
-3,-4,10,12,38,-17,-72,-2,3
-62,-19,-13,7,-7,8,52,12,3
34,2,-6,-23,1,29,5,-10,3
25,10,2,-18,-7,-4,3,19,3
-9,-1,2,6,5,-27,-33,12,3
-41,-2,-3,-9,6,-26,-57,-22,3
-1,7,-8,-17,-12,0,-26,18,3
18,16,3,7,-2,17,96,2,3
-61,-1,7,114,11,-14,-29,-5,3
68,35,-21,-109,8,31,-49,27,3
16,24,12,22,5,14,53,4,3
-1,23,1,37,-9,-63,-128,-4,3
-1,7,5,19,0,40,127,2,3
-10,0,0,30,-8,5,-28,4,3
-4,10,14,46,8,8,-88,-11,3
-25,25,-13,-79,-9,15,-2,24,3
15,1,30,89,18,1,10,-20,3
4,-44,-38,-90,-45,-19,19,13,3
26,-34,-7,-11,20,34,64,8,3
-25,-47,19,49,19,45,12,3,3
-1,54,-3,70,-5,-113,-90,-10,3
-12,-11,22,73,7,13,4,-20,3
-21,-28,-17,-61,-18,1,17,14,3
41,-77,-6,-39,-3,15,-23,6,3
19,-104,1,-12,-3,27,21,-6,3
12,-44,-5,33,4,-8,-50,-1,3
-51,0,-9,50,-18,-10,-32,-20,3
16,14,53,92,33,15,28,-11,3
30,70,-55,-128,-25,1,-25,28,3
-5,33,14,30,10,5,49,-2,3
13,32,-2,4,-5,-1,12,3,3
16,-1,8,6,6,-5,59,6,3
-33,24,14,63,2,-17,-109,-23,3
-9,32,1,-16,-6,8,17,-11,3
18,31,-4,-58,-1,-2,-78,2,3
-8,0,-13,-19,-11,-9,-10,4,3
6,-4,15,7,0,-9,42,7,3
-21,-12,-15,-62,6,13,4,3,3
0,-12,-7,12,8,-14,48,-4,3
-17,5,-10,-4,-10,-4,30,2,3
-15,-21,-2,-31,8,27,19,2,3
24,3,27,84,7,-3,11,-13,3
-24,-35,-14,-30,-18,-2,8,-4,3
42,-7,1,20,9,-3,-20,-3,3
33,61,8,-77,3,11,44,8,3
21,57,-11,-38,12,8,52,9,3
4,-6,2,4,-2,-1,-6,5,3
-47,-32,-5,30,-8,-15,-6,-5,3
10,-7,3,12,-1,23,45,-2,3
-23,-4,5,22,2,-11,-77,7,3
6,-10,8,25,9,26,54,-9,3
-14,35,-26,-34,-7,-21,61,-20,3
5,20,-6,31,-21,-37,21,2,3
-1,-13,-4,-19,5,31,64,-5,3
-3,20,32,91,24,-44,-19,27,3
-9,-8,-33,-98,-37,89,-7,1,3
16,3,-9,10,34,-61,-71,-2,3
-14,-4,12,66,0,12,69,-14,3
2,-26,28,60,6,19,34,-13,3
-4,5,-13,-35,-9,-17,-40,13,3
13,-21,-22,-78,-30,17,-8,6,3
8,-2,-50,-75,-19,-10,-30,6,3
-20,-8,-2,9,2,7,14,-15,3
32,-5,31,85,27,-2,-2,-8,3
50,-13,10,44,2,18,-3,-22,3
6,28,23,32,9,-17,43,0,3
0,16,-6,-48,-11,-18,-109,-2,3
-3,52,-10,16,-14,-15,28,7,3
-8,-6,-2,-3,2,7,32,-2,3
9,-12,5,5,-7,4,3,4,3
29,6,3,-36,-14,1,4,20,3
-10,-80,10,-69,38,34,-36,10,3
-52,25,-14,16,11,-33,29,-32,3
-4,50,-2,54,-44,-18,-7,-18,3
10,-4,-7,29,16,15,61,17,3
-7,19,-2,32,-4,1,27,-12,3
3,-62,-28,-96,-84,29,-45,25,3
4,-27,4,5,95,-15,-36,-2,3
7,3,-19,-4,-1,-5,-8,-4,3
4,-23,23,59,22,-5,-22,-9,3
-30,-34,-1,34,-10,-4,-4,-5,3
74,4,-5,-33,-43,-8,-6,-2,3
22,11,2,-22,6,3,-15,-8,3
13,20,4,7,6,-14,0,0,3
-54,-13,8,-1,-9,2,-2,7,3
14,-23,8,-2,-5,3,-3,16,3
-24,-5,-8,-25,5,10,48,-2,3
-72,8,-10,-10,-4,-15,-2,-1,3
59,2,15,3,16,32,-43,17,3
-47,-23,1,-1,26,39,-46,3,3
-15,12,-9,-10,-15,-22,78,-24,3
0,36,10,88,-52,-42,-94,-14,3
22,24,-15,-63,27,22,27,13,3
-19,-6,-6,17,32,18,51,-1,3
5,21,11,13,4,-10,-20,-2,3
11,17,36,105,36,17,35,-15,3
-31,-24,-36,-52,-19,-1,0,-6,3
-35,-20,-44,-90,-24,-14,-22,25,3
9,-17,-40,-10,-22,1,7,-9,3
12,2,3,57,-3,-16,10,-1,3
13,4,44,122,15,7,-20,-15,3
-94,-21,7,5,0,-2,6,30,3
34,5,1,-30,1,2,-11,-2,3
38,5,0,-66,3,6,-67,6,3
0,9,4,10,-5,-15,68,-10,3
36,8,4,-1,-25,-19,-7,-9,3
4,0,10,8,3,11,-23,-3,3
4,0,-15,-48,5,-4,35,2,3
-24,-10,-2,-15,3,-1,-8,-3,3
10,-9,21,39,-18,-12,-64,0,3
-27,-23,-6,-33,33,26,7,-7,3
-4,-18,-18,-61,-20,-3,91,9,3
-48,-6,26,113,1,-12,-97,32,3
-29,-19,-9,-63,1,-5,-61,10,3
44,1,23,83,-11,7,61,-22,3
13,-5,-49,-79,-21,-17,8,29,3
17,14,9,37,6,3,-11,-14,3
-52,12,-41,-101,-6,16,30,24,3
44,19,-17,-47,-21,-16,-54,10,3
-16,9,-11,60,-2,-9,-9,-7,3
20,4,22,61,7,9,9,-15,3
17,15,46,94,17,-1,-3,-23,3
-47,-9,-8,-38,-7,-9,27,14,3
17,13,16,-10,-3,6,-6,-19,3
0,-7,-2,-58,9,25,42,1,3
-9,1,6,27,-5,11,-30,-52,3
67,10,3,-4,-5,-16,3,-16,3
31,-3,5,-19,29,-7,-63,7,3
14,-7,-4,-20,1,-27,13,-3,3
10,-7,-3,11,5,15,2,22,3
-94,-38,-12,3,-17,15,-3,58,3
12,-5,-2,2,0,-11,39,5,3
19,2,-18,-37,-3,3,86,-1,3
34,19,18,64,-7,-11,41,-11,3
-11,7,-3,-39,-11,-1,-15,24,3
-33,-4,10,18,26,24,36,-14,3
0,-4,9,34,12,-16,1,-18,3
9,-12,-39,-95,-11,-4,127,-8,3
-19,10,29,24,-2,-27,-66,13,3
-6,1,-41,-82,-30,-5,56,15,3
16,11,-4,13,-5,8,76,-15,3
26,13,22,64,7,-5,-55,-23,3
-15,-2,7,28,-2,-11,-34,-41,3
-41,-13,6,11,6,9,-9,-10,3
75,-4,-4,-30,8,6,-58,-32,3
8,-2,4,-6,-6,-13,11,-1,3
-15,-8,-9,-25,8,19,48,3,3
6,10,14,4,-1,-10,-84,5,3
-39,-10,-12,-26,-9,14,36,14,3
10,4,-1,11,-6,-15,-28,11,3
81,11,3,0,18,-1,3,-37,3
-54,-8,0,29,-17,-17,-25,31,3
14,-9,4,16,-3,4,1,15,3
11,-4,-5,-22,-5,15,7,6,3
-32,-11,-2,1,4,-3,45,24,3
-72,-18,-4,-20,-11,0,-9,-11,3
69,30,34,82,22,4,-44,-27,3
47,13,21,66,23,0,-1,-5,3
-20,4,-43,-48,-15,-8,-8,15,3
4,8,-8,-94,-11,7,19,-5,3
-16,-8,-27,-9,-32,-23,-32,-1,3
1,1,6,53,12,10,12,-35,3
-10,0,36,46,0,-1,-61,-9,3
22,1,2,53,8,-54,27,-22,3
-17,-6,-5,-9,-3,29,-11,3,3
-5,-5,-1,-28,3,-11,38,7,3
7,11,2,8,-6,-27,-63,1,3
18,8,7,2,-3,28,16,13,3
-74,-9,-1,-33,3,-15,31,36,3
-64,-10,-3,-14,-9,-2,12,24,3
33,1,-4,-15,9,19,-19,-20,3
32,5,8,19,-1,-1,-11,-11,3
-71,-20,-13,-16,-7,-7,-13,58,3
-88,-17,-8,-13,-2,12,-2,65,3
22,-1,8,70,6,2,27,-10,3
-1,9,16,-18,8,5,-8,11,3
-6,2,-38,-78,-16,9,21,6,3
21,1,-7,-31,-8,-8,2,-25,3
22,-6,-10,53,-11,-17,1,-43,3
-9,12,46,84,23,15,-2,39,3
37,16,-28,-96,-1,-6,-55,3,3
51,13,-9,-26,-6,-2,0,-1,3
23,10,8,17,-1,2,-15,-4,3
-1,-1,0,18,0,7,-14,-52,3
-13,6,15,54,-2,-15,-40,-16,3
53,3,2,-7,3,0,-65,-63,3
-56,-8,-5,-42,6,27,20,8,3
-17,0,-3,-7,-1,-13,-4,18,3
16,3,-10,-10,-16,-20,-32,-7,3
35,-3,3,18,19,35,13,-38,3
91,7,6,-5,-1,-57,38,-70,3
29,-4,-24,-3,-15,7,10,-28,3
9,0,13,29,3,9,30,-27,3
-21,-1,7,14,-11,6,13,20,3
-42,-5,6,4,16,36,18,49,3
13,1,-21,-63,-5,-5,45,7,3
-82,-11,-1,-9,-5,-7,-15,42,3
-28,-6,-21,-72,-12,-12,36,42,3
-42,-8,-6,1,-2,2,-18,21,3
-7,-2,4,25,-3,-4,-2,1,3
-31,3,26,75,25,17,-1,21,3
47,9,3,-49,4,-4,6,-20,3
-102,2,-5,-12,-14,2,13,71,3
54,6,-3,9,12,5,-33,15,3
-15,2,2,6,7,10,28,21,3
-25,8,45,117,12,-8,5,-22,3
-26,-12,-37,-97,-10,5,-38,0,3
-4,-5,-37,43,-45,-38,-64,-4,3
24,-8,-13,8,-6,-13,-17,2,3
-33,-8,-23,7,6,7,44,8,3
49,14,48,89,22,11,16,-64,3
-41,-3,0,-39,1,41,126,-30,3
34,7,9,0,23,-10,-10,-13,3
-29,7,12,22,-17,-44,-49,30,3
46,0,-8,-25,-8,20,-3,-22,3
54,-10,-4,-11,9,-7,-38,-69,3
97,-2,2,2,-2,17,27,-69,3
-9,-14,-7,-5,0,10,29,-19,3
-34,1,-10,-5,-10,-18,-59,-7,3
79,4,6,4,-2,4,1,-12,3
22,-7,6,-5,-1,-11,-16,-42,3
6,4,4,24,9,-3,-25,-21,3
-1,12,11,30,-2,-5,15,18,3
-37,0,11,-15,4,0,-21,3,3
-37,-8,-51,-112,-24,7,15,33,3
19,-4,-8,28,1,3,28,12,3
-49,-14,-14,4,-18,-9,23,14,3
-32,0,11,67,-3,-15,-46,2,3
8,8,22,41,11,6,38,6,3
-11,17,0,-4,-2,15,-7,6,3
67,13,20,18,16,8,-10,-14,3
-86,-10,-1,-4,-3,-5,26,39,3
-15,-10,-12,-34,-13,-10,12,9,3
-15,-10,-11,1,0,5,-8,9,3
-17,1,0,6,6,1,-7,12,3
49,11,-1,-2,0,-1,-12,-11,3
-38,-6,1,12,0,-4,-5,8,3
-32,0,9,-1,0,2,17,15,3
-67,-11,-9,-15,3,2,-10,31,3
-11,-5,0,33,-2,2,76,22,3
-28,31,7,-25,6,3,-8,23,3
1,-24,-23,13,-11,-14,-9,-16,3
-21,2,9,40,1,8,12,-14,3
-6,-3,-24,-109,-4,2,32,6,3
25,-6,26,81,6,5,-43,-22,3
-20,-7,-21,-108,-31,-31,17,-30,3
25,0,-11,19,1,-1,8,16,3
-15,0,19,52,11,5,-112,-12,3
6,6,14,12,13,1,14,-3,3
8,3,14,-11,10,56,13,5,3
-10,-16,-10,-18,-7,-42,33,-15,3
-6,2,-5,-12,-2,6,-10,-3,3
-83,-11,-6,-5,-9,7,81,-1,3
-46,4,2,15,4,9,-82,26,3
-1,-4,-5,-21,5,9,-82,-19,3
-19,-4,-7,12,-4,-6,92,17,3
49,1,-2,4,-6,2,11,-33,3
42,4,7,27,5,-21,-48,-27,3
-4,17,25,32,-5,-1,-5,12,3
-10,-13,-8,-11,15,3,-17,3,3
6,-19,-19,-49,-15,-3,2,14,3
-42,-10,-29,-32,-9,-10,27,30,3
79,9,-6,-15,1,4,-17,-44,3
-24,8,9,10,-2,1,-10,3,3
-9,12,18,33,5,-4,-21,-2,3
13,-3,7,9,6,-9,-27,-10,3
-3,8,23,-17,-14,-5,66,22,3
-1,-2,-6,25,-2,34,-52,-23,3
-22,-12,-12,18,7,-10,81,-15,3
13,4,-3,-3,-14,-49,-102,-4,3
-19,-4,-2,13,17,28,41,5,3
9,9,9,4,-10,-18,69,15,3
29,3,0,-27,-15,5,-97,11,3
-32,-16,0,13,7,15,48,22,3
-10,-13,4,10,5,6,2,-1,3
42,0,-19,-35,-5,-2,-12,23,3
-4,-8,-10,12,-3,-11,-12,-28,3
10,2,6,17,2,-1,50,-5,3
-7,21,4,-28,-5,-6,16,13,3
-35,-64,-27,-23,-2,0,7,10,3
11,10,2,33,9,2,8,10,3
14,8,1,-5,1,4,-18,2,3
-14,2,-5,-9,0,7,40,-26,3
5,25,16,4,1,-17,-55,-18,3
-4,5,2,-6,-5,-5,-53,-1,3
12,-6,6,17,0,13,17,-13,3
-14,-16,-35,-86,-6,16,-46,-2,3
-20,5,0,21,-17,-97,8,-29,3
-3,-2,20,55,-6,9,47,15,3
-3,14,18,15,10,-2,-77,-10,3
-25,-19,-75,-92,-22,25,17,12,3
10,13,8,85,16,66,-4,-6,3
-1,1,15,56,12,-34,63,-50,3
-30,-2,-8,-71,-18,-24,-11,6,3
78,4,13,48,11,-14,41,-26,3
-6,-5,-2,-25,-7,-5,-34,-8,3
-40,-6,-3,9,2,28,26,40,3
84,1,16,42,24,28,30,-24,3
-21,-11,1,6,-1,-28,-35,6,3
-19,3,-4,-20,-3,10,32,30,3
18,12,10,-6,5,16,0,24,3
-29,-11,-17,-24,-13,-16,22,-6,3
-13,6,0,-3,-17,-29,-20,-2,3
36,24,43,65,15,14,-1,-10,3
-16,-15,-41,-116,-10,3,30,16,3
2,-3,6,5,-2,-2,-79,5,3
-1,1,11,42,5,-4,105,-8,3
-15,26,66,101,-2,-6,-14,4,3
-2,-8,-51,-106,-21,-4,-59,-22,3
9,13,-60,-30,7,23,64,10,3
3,5,14,81,7,21,-28,1,3
-34,-11,-9,6,0,-37,1,40,3
51,6,50,69,13,0,-17,-4,3
-64,-11,14,2,-7,4,-8,46,3
1,-22,-9,-20,4,10,18,-6,3
-28,-16,-22,-43,2,20,22,5,3
-1,7,0,3,-4,-12,-41,-16,3
0,6,3,4,-2,6,54,-11,3
3,-4,2,5,-2,-12,-69,-9,3
-74,-23,-17,-37,-2,4,-75,49,3
-36,-2,-18,-7,-26,-39,23,36,3
12,12,9,16,4,12,42,-3,3
-15,5,14,-2,3,-4,-36,-1,3
18,-5,-6,-4,6,26,79,-35,3
-6,-3,0,-38,22,19,-94,-2,3
-9,-1,15,89,-14,-27,63,-1,3
-18,-2,-17,-75,-11,-4,5,-2,3
35,11,-17,-41,-9,-8,-30,-9,3
-9,-14,-23,98,0,14,-12,-18,3
20,8,-5,-35,8,1,0,4,3
20,-6,8,49,2,-4,1,-4,3
57,-5,1,-9,-3,-6,-13,-31,3
-59,-11,15,-8,-5,-2,32,14,3
-3,4,7,-9,2,26,-23,24,3
46,10,2,0,5,-13,11,-23,3
-6,-3,-13,-40,-4,-17,-20,-19,3
-17,-7,-1,1,0,-4,-14,16,3
5,-7,-4,-2,-6,0,43,-19,3
-33,3,5,-7,6,28,2,32,3
13,14,-5,12,-10,-13,-71,-11,3
22,10,3,10,1,-10,12,-22,3
-2,2,0,10,4,11,46,-1,3
-3,3,5,17,4,10,-74,7,3
-32,-19,-4,3,-3,-17,103,-31,3
8,5,6,55,-4,-2,11,-9,3
10,-3,-23,-95,3,-2,-88,-3,3
-13,-1,14,48,-5,-8,5,13,3
5,-6,-22,-63,4,24,7,5,3
7,-2,-19,-22,8,8,14,-25,3
-33,0,17,17,-5,-14,4,14,3
-33,-7,-3,-12,2,2,21,14,3
34,7,13,20,6,10,-3,13,3
49,9,7,-26,-4,-2,10,-28,3
-30,4,-5,8,-9,-15,-37,-7,3
17,0,-5,-9,-1,5,4,-47,3
-8,9,7,5,0,0,4,8,3
-32,-8,-5,-16,-7,-29,30,20,3
-4,-9,0,19,1,0,26,11,3
25,7,-1,1,-5,-4,-23,-31,3
6,5,-2,9,-2,10,63,-14,3
6,3,8,-1,12,19,-55,-5,3
-7,-8,3,14,-3,-10,82,-20,3
-12,-2,-3,-11,-9,-6,35,4,3
-1,-4,8,41,10,16,-72,-18,3
-32,-5,-6,-46,-5,8,29,8,3
2,0,9,50,0,-14,-8,-24,3
-11,-4,-11,-16,-3,-4,-32,19,3
7,2,-10,-55,1,3,12,-2,3
-9,-2,-14,-10,-5,0,-6,-3,3
40,-3,4,24,4,2,-13,-39,3
36,8,1,32,10,4,37,-14,3
-41,3,4,4,-6,-12,2,14,3
4,-7,10,18,4,3,-26,-16,3
-59,3,1,-26,-3,3,-8,23,3
23,-5,-9,-12,-8,-13,37,8,3
21,2,4,8,-2,-4,-40,-19,3
-23,2,1,-4,2,27,-14,10,3
35,3,2,7,3,-25,-58,7,3
-19,-3,-2,-10,-11,0,78,-9,3
-5,-1,-3,-1,4,10,52,15,3
-8,4,4,10,-5,-8,45,-10,3
1,-9,-1,-5,4,14,-15,-5,3
-29,-6,17,49,9,-3,-41,-3,3
12,-1,-25,-72,-9,-8,-18,15,3
17,7,11,-12,2,8,44,-18,3
15,-1,-20,-1,0,3,-29,-26,3
14,-1,-8,-11,3,1,-22,5,3
-16,1,13,36,3,2,13,6,3
10,-1,2,7,5,-13,-55,-16,3
-23,-1,6,-14,-3,0,31,-9,3
14,8,0,0,-4,-10,-72,6,3
70,-2,1,12,4,10,66,-19,3
44,6,-3,2,-1,4,4,-7,3
-5,2,3,2,-1,-18,2,28,3
-28,-4,-6,-17,-2,0,25,-6,3
-20,1,0,1,-3,0,-17,7,3
-28,-2,0,6,-4,-10,2,9,3
26,-1,3,7,8,22,15,-23,3
-22,-4,-1,7,-5,-8,-47,4,3
-6,2,9,-21,-6,-10,-58,-11,3
-7,-2,-22,-39,-11,-16,29,-5,3
8,5,6,11,0,6,-20,-2,3
-3,-4,0,-8,4,6,23,8,3
-22,-4,7,33,4,1,13,7,3
5,1,-14,-14,-2,3,-53,-15,3
5,-1,-4,-7,-7,-12,16,-6,3
-8,5,5,7,-2,-2,8,10,3
8,3,11,49,2,-7,-17,4,3
-8,-7,-6,-33,10,14,25,2,3
11,5,-6,-27,0,-2,-99,-5,3
-28,-4,-2,12,-16,-12,63,-8,3
-18,-16,-12,-6,1,-3,-73,-36,3
-16,-11,5,21,-2,-2,36,2,3
-37,-7,-1,2,-2,3,6,3,3
6,0,-3,-21,1,2,-29,5,3
-24,3,0,-5,-3,-2,6,-4,3
12,-2,1,-13,-3,-5,24,-2,3
0,3,3,7,2,10,58,0,3
-13,0,1,-3,2,-8,-54,6,3
1,-8,-13,-8,-5,0,18,0,3
-3,7,15,16,7,0,-56,11,3
29,5,-6,-27,-8,-1,66,-10,3
-1,-5,-9,-7,-3,6,78,-13,3
-44,-6,-1,9,2,4,-29,12,3
23,3,9,33,0,-10,-33,5,3
-10,-2,3,-5,-1,-3,-49,-7,3
30,-1,-3,-16,1,2,-51,-20,3
50,5,0,7,2,4,93,-37,3
22,8,3,5,0,6,-3,-1,3
11,-5,-3,-1,6,7,63,-32,3
15,1,-2,-1,-5,7,13,-15,3
-18,3,0,-6,2,-3,-47,32,3
-34,-7,15,47,4,-4,57,-22,3
9,-2,-18,-65,-7,-1,-23,7,3
-12,-7,-2,30,-3,2,59,-11,3
6,-4,-10,-47,-5,3,5,-6,3
1,2,0,1,-1,-11,4,-7,3
-11,-3,8,46,-2,-6,-31,-18,3
-12,3,2,-11,-1,-7,-17,0,3
1,5,6,-7,2,2,7,5,3
7,4,4,5,2,7,-17,0,3
-10,-9,-6,-3,-1,-10,13,16,3
-5,-2,-5,-17,6,22,11,7,3
4,-1,-6,15,-12,-46,-35,-20,3
38,-3,-3,-9,-4,11,10,-20,3
-57,0,2,10,0,-5,8,56,3
60,9,5,-3,6,11,-9,-3,3
3,-2,0,6,-3,7,3,-27,3
6,-5,-8,-8,-6,0,11,-8,3
18,-4,-5,4,2,6,58,-5,3
-20,1,18,44,1,-17,-118,-7,3
-17,-4,-31,-97,-13,3,64,28,3
10,9,1,25,5,12,61,0,3
-7,-3,-3,-2,-12,-24,-71,0,3
25,1,5,6,3,-2,-3,-1,3
21,5,9,28,3,4,32,-9,3
-43,-5,-5,-28,0,3,-17,7,3
28,-4,-5,3,2,6,-15,-30,3
-2,4,3,-10,1,0,11,-6,3
-3,4,3,11,0,4,-22,27,3
39,1,0,-3,-4,-13,-34,-9,3
-39,-12,1,12,0,13,6,16,3
21,-12,-13,-23,-2,-16,4,2,3
9,1,1,13,1,-8,-7,-15,3
47,12,4,10,1,2,47,2,3
-3,2,4,0,-4,-16,-95,-22,3
-36,2,-4,-9,-2,15,86,-6,3
25,0,-3,12,3,8,13,21,3
5,1,2,-1,1,0,50,4,3
3,1,2,0,1,5,-17,-10,3
-37,-6,-6,-8,4,-4,4,14,3
1,2,6,11,-2,-23,-7,-12,3
-43,-9,-5,8,-4,2,22,20,3
75,11,7,-3,1,11,28,-30,3
-34,-6,-6,-5,-2,2,-1,-6,3
-7,9,12,-18,-3,12,-24,9,3
-3,-5,-19,15,-7,-9,-14,5,3
-6,-5,21,60,8,3,15,1,3
-17,-25,-57,-83,-13,-6,7,-8,3
12,1,8,62,4,10,15,-18,3
-9,12,13,2,1,-4,-62,13,3
-62,-1,2,-1,0,0,14,48,3
20,7,25,34,5,3,-1,13,3
-16,-10,-9,-19,3,5,1,10,3
-14,-3,-7,-19,-3,3,-45,-8,3
-2,4,1,-1,-2,-10,84,3,3
8,9,9,1,-3,-23,-99,-14,3
2,4,-5,-17,-7,-3,39,20,3
-6,-5,3,3,4,0,-46,-8,3
3,-7,-7,-14,2,10,24,-15,3
-54,-4,1,0,-6,9,17,20,3
3,1,1,2,0,-1,-81,-12,3
28,3,5,0,0,-12,-30,-2,3
3,-2,-6,-10,1,6,48,-21,3
4,4,-1,-1,0,-6,13,-4,3
-9,-4,1,6,1,1,-32,9,3
-6,6,6,18,-4,-12,28,-13,3
17,3,-4,-40,-2,5,-30,-12,3
20,4,1,-2,-2,-3,-2,-3,3
-30,-17,-14,-19,-3,6,22,17,3
-11,-6,-4,9,0,-6,-23,5,3
-53,4,1,3,-4,-2,18,16,3
19,18,20,31,1,3,11,2,3
65,-3,-5,-7,5,5,38,-43,3
-31,-8,-6,-21,-4,3,-21,1,3
3,-3,-4,10,-4,-11,-81,-10,3
10,-2,1,-3,-4,3,58,-5,3
-25,2,12,18,6,5,-8,-6,3
7,-4,-21,-77,-15,-8,49,17,3
19,0,-7,36,1,6,-31,-42,3
-11,-4,-6,5,-2,-9,-5,-15,3
2,7,14,16,5,0,13,-2,3
-9,3,10,14,3,8,82,-13,3
7,6,-8,-29,-3,-2,-106,8,3
-17,-7,-12,-11,-12,4,65,-2,3
60,12,1,17,1,-10,-16,-43,3
2,8,8,10,-2,-38,-34,-21,3
-45,-8,10,41,8,6,-18,26,3
-28,-15,-14,-61,-11,1,2,15,3
-23,-7,-13,-22,-4,10,36,8,3
-1,-1,0,15,1,14,-50,-5,3
34,9,15,15,4,-7,1,-12,3
9,0,-2,-8,2,-1,-53,-6,3
-57,-2,-6,-33,-10,2,9,49,3
1,-21,-18,12,8,6,9,-24,3
-23,4,21,57,8,-1,52,16,3
-7,-3,-19,-39,-3,7,14,-3,3
4,2,-3,-14,-2,-8,-17,-4,3
-15,0,-6,8,-5,3,-7,11,3
9,0,3,-4,-4,-2,40,3,3
-11,2,9,31,9,1,-16,3,3
30,12,11,15,4,1,41,11,3
-3,1,5,-1,1,11,-97,2,3
-15,-20,-22,-37,-18,-16,36,-26,3
-15,5,3,7,-8,-26,-21,30,3
5,-4,2,11,3,3,-35,-10,3
24,8,6,-5,4,19,38,1,3
34,2,-6,-30,7,19,36,-8,3
9,-1,12,29,3,-6,-32,-9,3
-21,-2,14,39,4,5,-66,-8,3
6,-1,-24,-93,-12,-3,16,8,3
13,13,8,31,0,-1,-6,-3,3
2,-1,-12,-15,2,7,26,-8,3
-31,-9,6,39,1,-2,15,18,3
5,-6,-8,-21,-11,-7,19,5,3
-18,-4,-12,-28,0,-4,-1,8,3
2,9,12,27,10,5,6,4,3
-2,6,1,0,-2,4,30,-6,3
-14,2,6,20,4,-12,-77,9,3
-1,2,-4,-18,-9,-5,94,8,3
11,-2,5,17,2,10,5,-14,3
-9,-10,-15,-29,-9,-7,54,-10,3
-53,-5,8,15,2,13,22,35,3
4,-5,-6,-9,-4,-23,7,0,3
-4,-3,0,-1,-2,8,-23,-1,3
3,3,0,29,-1,-16,-42,0,3
7,9,16,-45,10,22,107,-2,3
0,-8,-14,-7,-20,-40,-122,-37,3
4,-3,-12,-2,9,15,39,-6,3
3,1,-12,-3,-12,-10,-2,-17,3
17,3,8,38,7,-3,-14,-13,3
8,2,11,16,6,14,-20,-1,3
5,0,5,-7,-3,-1,-31,-11,3
-11,-1,-4,-15,1,-1,-17,-9,3
4,-2,2,29,-2,-7,2,-3,3
0,4,-3,-27,-3,10,28,12,3
43,-1,2,12,-7,-11,-18,-55,3
-11,-3,-3,-14,4,11,35,19,3
5,-2,-5,8,-2,-6,-1,-12,3
9,1,-4,-6,5,13,44,-1,3
-16,5,5,-4,0,-1,17,13,3
-4,-2,1,-4,-2,-3,-40,12,3
6,-3,0,16,0,-2,-39,-23,3
-14,-7,-3,-27,-7,-3,67,-1,3
-3,4,13,8,4,5,40,9,3
8,-3,-25,-36,-8,5,7,-9,3
-7,-1,-10,-7,1,-7,7,16,3
11,0,7,31,3,15,3,-12,3
-3,-2,-7,-16,-1,-13,-21,13,3
11,2,4,2,-1,2,18,4,3
1,2,2,6,-3,1,-27,-2,3
-2,-3,-1,1,2,-8,-6,-3,3
9,10,6,2,1,7,-23,-14,3
6,-1,4,7,6,-4,34,-40,3
-43,-19,-10,-5,-3,-4,15,-41,3
1,-6,-6,-8,-3,2,-15,7,3
-17,-4,-4,9,-3,-1,-33,6,3
3,6,5,-9,3,8,28,-2,3
-23,8,7,13,-2,9,77,-2,3
11,3,0,-19,0,-11,-58,3,3
-8,-9,-10,-3,-10,-16,-50,-6,3
-1,7,9,26,2,15,19,4,3
9,-2,-10,-16,-5,-13,-28,1,3
2,7,0,10,2,9,-15,-1,3
1,-4,-8,-29,-3,3,48,13,3
-11,-6,-4,8,-2,-14,-80,0,3
10,-1,1,28,0,4,23,-3,3
4,4,3,8,1,-1,3,-3,3
-51,-6,2,-4,-1,3,3,46,3
17,-6,3,10,-1,-7,4,-16,3
30,2,2,-12,0,-5,-18,-3,3
-9,0,-6,-6,-2,9,16,0,3
1,5,9,15,-3,-3,32,-2,3
-9,-4,-5,-16,3,10,-20,-4,3
5,-1,1,1,-2,-8,-22,-6,3
-5,-10,-7,-7,-3,6,44,8,3
20,4,-4,11,-1,-8,4,-10,3
-3,4,1,-11,-3,5,-53,-5,3
8,-1,-5,12,-5,-19,-60,3,3
1,3,5,-2,3,6,11,-12,3
7,3,11,21,4,-1,-5,-13,3
-4,-3,-16,-35,-5,-2,-1,4,3
-9,-4,0,-2,0,7,31,12,3
5,-2,4,10,1,-7,-30,-12,3
10,1,-1,9,-1,2,-16,-11,3
26,10,9,5,1,-2,40,-8,3
-8,-4,3,9,4,-2,-59,28,3
35,-4,-11,-26,0,2,8,-13,3
19,-7,-4,-6,-3,-5,14,-18,3
-18,-4,-2,25,-1,-7,-16,4,3
-7,6,1,-19,-2,11,21,2,3
4,3,-2,-16,0,-4,-39,-17,3
4,-1,2,-1,3,3,49,9,3
-13,-10,-4,14,-6,-8,-34,2,3
5,-5,5,21,1,1,19,-18,3
-10,6,5,8,3,-9,-32,7,3
3,1,-4,-10,-2,-1,29,-4,3
-7,-4,-7,-28,-3,0,27,-4,3
3,5,6,1,0,2,14,-5,3
-16,-5,-3,11,-2,3,20,0,3
-17,-9,-4,4,2,0,-23,4,3
-2,2,2,-7,-1,4,55,15,3
30,11,3,-3,1,-2,-10,-36,3
-53,0,2,-3,-4,-2,4,28,3
8,4,-1,0,4,2,-20,-1,3
-15,-5,3,-4,-1,12,33,11,3
-29,-11,-8,-7,2,-17,-6,-2,3
-8,-1,-6,1,-6,2,-53,-12,3
4,-3,-5,-3,-6,6,81,-2,3
8,1,2,2,-1,-6,-42,-4,3
-6,4,-1,-3,-3,10,38,14,3
31,3,3,17,4,-4,-18,-7,3
-22,-1,0,-10,3,0,-36,12,3
47,4,2,-10,2,-2,64,-33,3
5,-2,-5,-2,-2,4,-8,-9,3
-7,-8,-8,-2,-9,-19,12,24,3
-5,0,0,4,-6,-6,-3,13,3
1,2,4,16,-1,-7,12,3,3
-61,-7,-7,-16,-1,2,-3,26,3
31,5,15,38,11,9,16,-16,3
3,2,-15,-50,-6,3,-39,19,3
-13,-5,-4,6,-6,-15,-32,-5,3
10,-8,-1,4,-5,-8,-34,-6,3
-10,-4,-4,4,3,10,21,9,3
7,2,8,13,2,1,5,-3,3
-2,-2,-6,-14,1,-1,-74,1,3
19,3,-1,-1,-2,1,-1,-4,3
-7,-1,1,-8,0,-1,18,-12,3
10,3,3,9,7,3,22,-21,3
-9,0,-6,-14,-6,-5,-69,4,3
9,-1,0,3,-1,-1,41,-10,3
13,0,-6,-12,-6,-7,-33,15,3
-6,-5,-6,-4,-2,5,-8,-27,3
-17,3,4,19,3,6,30,14,3
29,3,-4,-14,1,-3,-1,0,3
-5,5,10,36,5,9,15,-9,3
-3,-1,-4,-46,-2,-9,-81,-38,3
-11,-3,-5,5,-6,-18,3,2,3
3,-6,-4,-2,-6,-1,33,-4,3
-4,-7,-4,-3,3,2,-15,-14,3
0,1,5,17,5,7,12,12,3
2,-2,2,-4,5,12,1,-30,3
-17,3,8,26,3,1,-8,0,3
8,2,-8,-59,-3,0,13,6,3
3,3,3,18,-1,-9,-7,-4,3
15,3,-2,-10,0,4,83,4,3
-5,-2,-3,-4,-4,-16,-75,9,3
-12,-13,-5,-2,-4,-3,40,-9,3
-39,-3,-1,0,-3,5,34,37,3
11,0,0,9,2,5,16,10,3
7,5,6,4,4,7,12,-6,3
-1,6,6,1,0,-1,-18,7,3
1,-1,-3,-13,-4,-8,-20,2,3
4,5,-2,-13,0,4,11,4,3
11,10,0,7,-1,5,17,11,3
-19,-8,-6,10,-9,-22,-82,-32,3
1,-19,-4,5,3,6,33,5,3
-13,-7,0,-3,-4,-1,28,-3,3
19,7,1,-7,0,-5,13,-3,3
10,7,-1,-3,4,7,0,3,3
-54,2,4,11,-1,0,-13,22,3
10,-5,-3,-13,6,-1,-34,-7,3
-18,-2,-1,-12,-6,-1,3,11,3
25,16,7,5,4,14,48,6,3
1,-4,-1,0,-3,-17,-4,0,3
-22,-16,-6,1,-8,-1,-4,-18,3
-2,-9,-10,2,-3,0,-13,-5,3
-11,-9,-2,1,-3,-1,15,6,3
21,4,-1,-14,1,10,34,-13,3
5,10,9,29,4,-1,1,-13,3
6,-1,-1,-18,1,-6,-1,-2,3
1,0,0,1,-1,1,8,0,3
25,11,-3,6,-1,5,34,-3,3
-1,-2,-1,-1,-4,-8,-15,10,3
-22,-9,0,2,0,7,-30,-5,3
-9,-6,-7,-6,-5,0,83,4,3
9,-9,-7,11,-6,-15,2,-10,3
-3,1,2,-4,2,14,38,6,3
8,3,-2,1,-1,-12,-32,-15,3
-1,1,3,-4,4,2,-14,8,3
11,5,5,3,-4,-2,-37,-23,3
12,-1,0,-3,-5,-2,28,-25,3
-15,2,3,22,3,-1,-16,-7,3
-16,-1,7,-54,-4,-3,-12,-11,3
-13,-18,-22,-4,-1,4,8,4,3
-5,-4,-9,5,-8,-16,-45,23,3
3,-2,1,4,3,11,16,-7,3
4,1,1,15,-4,-11,34,-6,3
4,8,11,8,4,5,-19,-3,3
5,7,2,-19,1,2,-22,5,3
8,4,6,19,3,-1,5,5,3
-6,-7,-12,-11,-1,9,20,4,3
12,-4,-1,-3,-6,-11,-56,24,3
-13,-4,-7,3,-4,-6,-8,-3,3
17,-1,1,-4,-1,0,21,-8,3
6,6,2,7,2,1,-19,-25,3
10,7,5,3,4,4,25,4,3
-8,-1,7,1,0,2,-4,5,3
-15,-8,-6,-12,-1,11,84,0,3
9,6,1,2,3,3,-12,42,3
-15,-10,-7,-2,-7,-16,-46,-24,3
2,2,4,5,0,3,8,-3,3
-1,2,0,-25,-3,8,48,5,3
12,-4,-2,26,0,-7,-31,-11,3
3,5,8,4,5,6,-1,9,3
-2,0,6,30,4,1,54,-7,3
1,-1,-1,-21,-4,-2,-27,-5,3
-8,19,-1,-40,-7,2,-39,2,3
8,-24,-28,-3,-4,4,3,-4,3
-5,-12,-2,14,5,2,-38,-17,3
-12,-12,-9,6,-12,-13,-23,-11,3
-7,7,19,41,14,0,-49,-9,3
-3,12,14,0,1,6,90,-3,3
-1,3,-4,-21,-1,-3,-84,9,3
7,-1,4,12,0,-5,22,-7,3
4,-6,-8,-13,-10,-6,-4,-13,3
9,-9,-7,11,-6,-15,2,-10,3
-3,1,2,-4,2,14,38,6,3
8,3,-2,1,-1,-12,-32,-15,3
-1,1,3,-4,4,2,-14,8,3
11,5,5,3,-4,-2,-37,-23,3
12,-1,0,-3,-5,-2,28,-25,3
10,1,0,-1,0,3,1,-11,3
6,-2,-1,0,3,4,20,21,3
-4,4,1,-3,3,0,-8,-3,3
2,-7,-5,0,-1,-8,4,6,3
5,10,6,1,4,-2,-60,26,3
4,2,-2,-5,-3,-5,105,6,3
-5,-1,-3,-3,0,-1,-79,-2,3
-7,-11,-14,-3,-9,-7,88,13,3
0,1,4,10,0,-5,-78,4,3
-5,0,-1,-8,-3,2,4,-4,3
2,17,10,7,4,2,19,6,3
4,-8,-5,5,3,6,-5,1,3
-9,-3,-2,-23,-5,-4,19,-31,3
-9,-2,-4,-6,-3,-2,18,-31,3
-12,8,17,52,0,-11,9,-21,3
-32,-21,-19,-72,-7,3,-27,11,3
-9,-9,-10,-9,-2,9,32,7,3
11,-1,-7,-1,1,-1,-16,12,3
3,-7,-2,0,1,1,19,15,3
8,6,11,33,2,3,-5,4,3
-5,6,5,3,2,-2,0,-13,3
4,5,1,-10,-1,3,17,12,3
-1,11,-3,2,1,-3,-15,-25,3
11,5,-1,2,-1,-2,6,21,3
11,-1,1,-11,-2,3,24,15,3
-15,4,2,13,-8,-2,-32,-59,3
-14,-7,-7,-3,1,1,-12,-45,3
30,17,6,17,13,2,-12,-23,3
8,1,10,24,12,4,19,21,3
2,-2,3,11,-2,-4,-5,26,3
5,-16,-17,-31,-3,0,31,43,3
-23,-11,-7,-26,-4,9,-8,-45,3
-10,-13,-10,-14,-14,-26,-1,8,3
2,6,-3,-53,4,11,20,13,3
16,-11,-2,-28,2,4,24,18,3
-1,-9,1,22,1,6,41,5,3
13,1,10,29,3,10,-6,15,3
-3,-12,6,43,5,-2,-16,7,3
-10,47,11,23,-2,-7,-25,-43,3
-6,-79,-30,-10,-18,-13,-7,17,3
20,7,-6,38,0,3,-2,9,3
-13,-15,-8,-11,-5,-4,1,23,3
-8,-4,-1,15,6,14,21,41,3
-6,26,6,3,3,-2,2,-9,3
-1,19,5,-20,-4,-15,-80,-22,3
17,21,6,7,7,10,29,21,3
-5,0,1,-13,2,4,22,-4,3
-4,19,5,13,-3,-12,-33,-5,3
-7,-3,-2,13,-2,1,20,-8,3
11,18,15,-3,1,2,-3,-18,3
-4,-12,-24,-64,-19,-7,-3,-23,3
45,5,14,7,8,6,-11,-34,3
-10,2,14,2,19,8,8,18,3
-13,-22,-24,-35,-10,-21,-32,-26,3
28,-11,0,10,-1,-9,23,12,3
9,8,7,22,-1,-5,-58,39,3
-9,0,7,-4,7,25,94,12,3
9,0,-4,16,-6,-1,-36,-15,3
-1,0,0,5,1,-8,-57,15,3
-3,16,-2,-9,-2,-10,23,11,3
3,4,0,-12,3,-5,-50,-24,3
10,8,2,-5,5,21,31,4,3
13,1,-7,-34,-10,-12,-8,15,3
2,-1,2,8,9,11,22,-14,3
1,0,-9,-1,-12,-22,5,-10,3
-7,6,1,27,-14,-5,26,2,3
-8,-6,-1,0,6,13,32,-16,3
-21,2,-2,-7,1,13,-17,-10,3
-24,1,-5,-15,-4,-16,-73,8,3
-22,-6,0,3,-3,-9,-1,-9,3
8,-5,7,23,6,14,38,-9,3
18,6,0,-6,-4,-25,-85,-7,3
4,-2,-3,-10,4,20,49,-3,3
-6,20,1,-10,13,13,11,4,3
-14,5,-5,-5,-9,-8,-23,14,3
-4,20,-6,-5,-5,-10,-11,-6,3
-3,-61,-2,-7,-12,5,24,1,3
-2,-16,-7,-10,-7,9,14,-8,3
3,-28,-2,5,10,-22,-25,13,3
-6,-25,18,27,7,31,127,-14,3
8,21,-14,-77,-15,-10,72,0,3
0,-21,-6,-15,3,2,-21,13,3
-6,-4,-1,1,-9,-11,-18,1,3
-2,-2,6,8,10,7,-1,-3,3
-20,5,1,24,5,1,-37,-27,3
-7,12,0,9,-4,-13,-3,12,3
15,15,6,1,14,5,-33,14,3
-3,-2,-1,-11,-7,8,-4,6,3
8,15,-4,7,-6,8,-45,9,3
6,14,3,0,1,-32,-51,5,3
-10,7,-6,15,-12,3,65,-10,3
2,-37,-3,-6,3,-10,-46,9,3
-1,-27,-1,4,-3,0,10,-7,3
-5,-6,4,23,8,-6,1,2,3
7,17,4,-3,7,13,-27,-7,3
-22,-1,-14,-22,-8,-11,44,7,3
-1,1,-8,3,-2,3,-2,-11,3
-20,-18,2,0,-2,8,-8,-18,3
30,50,10,33,15,14,9,-1,3
10,21,1,-4,0,-1,16,6,3
-4,31,1,-14,-6,6,-33,-3,3
7,1,-2,-9,-4,-9,-22,0,3
-19,-4,-4,-8,-5,5,20,-3,3
-7,-12,-3,-12,-2,5,46,2,3
21,9,9,-3,5,-9,-50,-11,3
6,-7,1,-13,-2,-7,0,2,3
-13,5,-1,-2,-11,-2,-8,-3,3
9,33,-2,-1,2,-10,-30,5,3
4,23,-3,6,-4,-1,27,22,3
5,13,-5,5,-9,-16,-37,1,3
-13,-30,-4,11,2,5,26,3,3
-5,-5,0,7,-7,-3,-19,3,3
-2,-29,0,10,7,20,48,-1,3
-1,4,-5,3,-6,-4,32,-12,3
4,3,0,-5,1,-21,-58,5,3
-2,-28,-9,-13,-8,23,82,1,3
14,33,-3,10,-1,-9,17,-5,3
22,4,5,0,8,11,14,7,3
30,0,2,6,-2,-8,-37,-14,3
-47,10,-4,14,-7,-3,19,1,3
-2,10,9,-14,7,-5,-6,3,3
12,12,-14,-12,-3,1,1,6,3
-5,-29,-5,-18,-2,1,-4,16,3
25,11,4,7,7,11,-63,-10,3
-11,0,5,12,0,-24,1,-2,3
-28,22,6,8,-3,3,9,20,3
-2,-12,2,0,-3,1,15,-1,3
10,0,0,6,-3,-7,-47,-8,3
-9,-17,-5,-13,3,22,-53,3,3
5,-17,-2,-14,2,-12,39,6,3
-10,3,-2,16,3,27,69,-17,3
2,19,0,-7,-7,-33,-83,3,3
5,-5,-2,12,-2,-11,-4,-17,3
-9,-15,2,1,5,19,-6,-6,3
-4,-13,-3,-7,-2,6,24,2,3
-8,-12,5,13,2,-21,-1,-3,3
-8,-21,-9,-14,-3,3,-2,-9,3
10,15,3,-20,-4,14,37,10,3
8,25,-6,-16,-5,1,-68,-5,3
-19,-30,3,-8,6,21,63,11,3
-13,-27,-3,6,-7,-37,-21,8,3
-20,-18,2,18,0,-13,-31,-2,3
2,2,-1,-12,6,15,46,-3,3
-2,17,2,-5,-7,-30,-72,1,3
5,4,-2,13,-4,26,52,3,3
-2,-2,-4,1,-1,16,80,2,3
-9,6,1,14,-9,-29,-74,-10,3
-3,-10,-1,10,7,11,40,-6,3
4,-3,3,10,3,-4,-2,12,3
8,3,-4,1,-1,-9,-53,-19,3
10,7,7,2,4,2,-11,4,3
-5,-16,-3,-7,-1,11,25,1,3
-9,-17,-7,2,-5,-4,-10,-9,3
-12,-20,-5,0,-1,10,24,1,3
-18,5,5,14,3,-9,8,10,3
8,23,-8,-47,-8,-10,-8,5,3
-4,-2,-1,-5,0,-4,28,6,3
8,6,6,4,5,20,-27,-9,3
-1,-14,-6,8,9,-15,-71,-21,3
-6,3,-5,-10,-4,21,7,15,3
-9,17,-2,6,-14,-58,49,-10,3
18,-2,2,10,12,4,-14,8,3
-10,15,0,-17,-16,-15,16,-8,3
9,-29,0,-3,9,35,120,-1,3
17,2,2,-8,5,17,-1,2,3
-17,4,-6,1,-10,-18,-68,-15,3
18,4,5,-1,4,9,42,12,3
-8,4,-1,11,3,-19,-47,4,3
-10,-8,3,3,1,13,-19,-9,3
9,-8,-10,-14,-2,-4,34,3,3
-33,-17,-9,-15,-1,4,-16,-2,3
35,5,1,-1,-9,-15,-20,-9,3
32,20,7,0,8,24,4,-10,3
-3,-3,-5,-10,9,3,-10,4,3
-16,-5,-2,5,-7,-5,16,-7,3
12,18,-2,-6,-1,-11,-39,-13,3
-17,-14,-2,-7,13,26,44,21,3
4,7,4,-2,-9,-25,38,-1,3
-9,-8,-4,-4,-8,16,108,1,3
-19,1,-1,33,-2,-29,-92,-5,3
8,-6,2,1,5,31,41,1,3
4,19,2,-10,-12,-36,-23,-6,3
10,15,2,4,6,16,-3,4,3
2,5,0,3,-6,-10,-48,-10,3
-4,-18,-10,3,0,-9,-28,-3,3
-11,-15,-6,5,-3,24,84,21,3
11,33,-2,-6,-5,-40,-61,-18,3
8,-10,21,63,11,28,72,7,3
1,9,1,-3,1,-20,-53,-1,3
10,20,-11,-74,-7,12,16,13,3
24,-14,-8,-11,-10,-26,-31,20,3
-10,-16,2,-2,8,42,122,1,3
-5,19,0,30,-11,-14,-55,-11,3
-1,1,6,29,9,-18,-72,-19,3
1,-5,-1,-1,-5,1,56,9,3
-13,-16,-8,-18,-3,12,-52,-6,3
7,5,1,-13,4,-16,7,12,3
4,4,2,11,3,25,5,-7,3
12,16,4,-7,8,-15,-59,-2,3
-4,-15,-8,-11,-3,3,23,0,3
-4,3,-2,-10,-8,6,22,-4,3
3,-2,-1,12,-1,2,-20,-1,3
-16,-12,-1,9,-3,9,84,10,3
12,7,0,-10,0,-9,8,2,3
-7,2,4,3,1,-5,-22,-3,3
-1,5,4,-16,4,11,47,1,3
-7,-17,1,19,5,35,-15,-10,3
6,27,-20,-37,-20,-28,48,1,3
20,-9,0,-3,-4,2,-24,-6,3
-7,-5,13,45,12,-6,1,-11,3
14,24,0,-15,-2,4,-51,9,3
-6,-8,-4,-7,-14,-11,22,0,3
-13,-1,-4,5,7,1,30,-6,3
-33,-23,-4,1,-4,19,71,-3,3
17,0,2,16,-2,-21,-24,-21,3
4,3,0,-12,-2,-12,-44,14,3
2,9,2,-18,-9,0,6,13,3
-5,-9,-8,-6,-5,4,-11,-8,3
-19,-21,-4,4,2,12,11,-2,3
-14,-4,2,12,8,-1,13,-6,3
8,5,4,4,-5,-16,-13,-3,3
7,5,-7,-6,4,7,-36,4,3
6,-7,1,-3,-1,-4,50,6,3
-1,3,4,5,-2,1,-18,-1,3
-15,4,1,-5,-1,2,-49,4,3
17,-10,6,-3,9,-15,20,4,3
-14,13,-4,5,-9,11,43,-3,3
-10,5,-5,-12,4,-10,-26,-5,3
-1,10,-3,-11,-6,-1,-39,-4,3
17,4,0,3,-9,-8,-19,4,3
17,-17,16,46,15,6,-12,1,3
0,15,-6,-45,-1,16,23,8,3
16,6,-4,-18,-9,-38,-13,3,3
6,1,6,-3,1,19,-8,-9,3
0,-4,-7,-12,-4,1,-23,8,3
-1,-7,-11,27,2,-3,-22,-3,3
-28,-12,-12,4,-4,18,44,0,3
8,21,3,-3,-1,-18,-27,2,3
1,5,6,-6,-2,-2,3,-1,3
-24,0,9,9,7,3,-16,8,3
-16,-5,-3,4,4,2,-28,1,3
-15,-5,-12,-15,-10,13,17,0,3
2,2,1,-13,-6,9,15,7,3
41,3,6,-5,13,-18,-76,0,3
-6,15,-1,7,-12,9,109,-7,3
-5,4,15,54,2,9,7,-5,3
4,9,-14,-32,-5,-21,-65,8,3
-8,-1,1,-8,0,11,3,-5,3
8,-16,-2,9,5,-10,-21,-2,3
2,1,2,-1,1,9,-8,-11,3
-17,-3,-3,11,0,-2,32,6,3
11,12,7,16,1,-9,-14,-3,3
-1,-5,-1,9,1,16,-26,-4,3
-3,-18,-7,-20,-6,-13,4,9,3
-7,19,-2,18,-4,-3,-35,-19,3
-1,0,-4,1,1,2,15,8,3
-5,-5,3,1,8,7,-8,-6,3
11,-2,1,-3,9,-14,-36,18,3
-25,-8,-4,-23,-6,3,21,-19,3
22,0,0,10,-6,1,-4,0,3
16,13,11,20,-5,-1,-3,3,3
-22,-1,-11,-24,8,22,-7,5,3
9,-1,3,-1,9,-28,-61,4,3
-24,-6,-5,-5,-11,3,109,5,3
3,-3,3,10,-1,-9,1,2,3
7,-2,8,33,-5,-27,-54,-19,3
18,10,-14,-50,-8,19,7,12,3
-4,0,-3,-14,-2,0,0,0,3
3,2,-7,-30,2,10,13,2,3
-6,-4,-2,9,0,-4,34,8,3
-15,-16,0,-4,-2,-1,-1,-5,3
-19,-7,2,16,0,-7,-19,-2,3
-7,-1,1,12,6,22,53,0,3
1,16,4,-16,-2,-18,-83,-5,3
-12,-13,3,13,10,10,94,1,3
9,21,-13,-5,-11,39,17,2,3
12,-6,-2,1,-2,-21,-65,-1,3
7,15,-6,-2,-2,1,-66,1,3
19,-10,7,9,5,-11,-22,4,3
-6,-5,0,-7,11,15,23,-6,3
-2,11,-1,-11,1,3,43,12,3
-7,0,-1,6,-6,3,59,5,3
12,-5,17,48,-1,-2,-7,-7,3
-2,11,-10,-28,-8,-20,-55,11,3
9,4,6,-22,2,3,-6,-6,3
-19,-11,-16,-35,-14,-11,10,3,3
-36,3,-10,-12,11,20,4,-6,3
-2,-3,7,30,1,-11,9,-3,3
-20,-11,-4,1,-3,-3,-4,-1,3
10,-7,2,20,6,25,35,3,3
4,16,1,-13,-6,-48,50,0,3
10,12,5,8,-1,-12,-119,-12,3
-13,1,-1,1,2,13,63,8,3
8,4,2,11,-9,-33,-67,-11,3
4,-5,-3,-5,-20,40,99,8,3
-8,11,-1,-5,12,-5,-86,-4,3
1,-5,6,23,-2,-10,-24,-1,3
0,-3,1,14,1,4,68,-12,3
6,1,-13,-45,-10,-11,-64,4,3
12,3,1,-3,-1,-1,25,1,3
-1,0,-3,-5,5,5,7,1,3
2,-8,1,-2,3,7,0,-6,3
-13,-16,-7,16,-6,-21,-31,-5,3
-8,-12,2,5,-7,15,127,-12,3
9,13,-3,0,-2,-24,-71,-1,3
-5,-1,9,-2,2,10,6,0,3
-5,3,-9,-22,4,25,-15,-1,3
16,-11,0,5,-3,-5,73,9,3
-2,12,-1,7,0,-13,19,4,3
22,0,0,-6,-4,12,65,-3,3
-5,-8,3,14,4,-1,-65,-2,3
-11,-8,4,4,5,1,-13,-2,3
-4,-9,-6,-25,-3,16,29,6,3
-7,10,-3,-4,0,-13,-12,5,3
20,-2,0,15,1,-4,5,-1,3
-16,-5,3,34,0,-11,-6,1,3
-6,3,-4,-25,-4,9,-10,-7,3
3,-6,3,68,8,6,-6,-2,3
5,13,-2,-47,-12,-2,4,9,3
11,9,-6,-29,-7,-10,-18,-2,3
0,-1,5,17,7,15,-19,-2,3
-14,-15,-3,-10,2,-8,85,6,3
-10,16,2,38,2,-5,-18,-21,3
31,-9,2,8,-2,7,-16,-9,3
3,16,-4,-8,-16,-33,55,6,3
1,12,2,-6,0,21,49,-2,3
10,-10,7,-2,10,-7,-67,4,3
-19,-9,-10,-26,-15,4,97,3,3
34,16,1,9,1,-7,-97,-20,3
10,9,1,-15,-4,-17,-110,1,3
-3,-8,2,4,2,10,22,2,3
-1,1,-3,-15,3,11,-17,-4,3
-8,-13,-1,2,6,4,18,4,3
-5,11,-3,-10,-5,-22,-14,4,3
1,-1,-1,-3,-2,10,21,-7,3
-19,-8,6,8,4,-8,-43,-4,3
17,-8,2,51,-3,16,40,1,3
-7,9,-14,-60,-3,8,-31,2,3
-4,4,-8,-43,-5,-16,2,12,3
9,6,1,12,6,14,2,-11,3
-13,-4,3,6,-3,-4,-29,5,3
-9,-1,-4,5,4,6,16,-8,3
-2,-1,4,29,-10,-14,66,1,3
-9,13,-4,4,-1,-11,-40,5,3
3,2,0,-13,4,-4,-21,1,3
10,-10,3,8,0,1,9,6,3
-6,-3,1,-3,3,9,10,2,3
5,2,0,-5,2,-4,-20,1,3
-8,-10,-6,-6,-2,8,18,-1,3
15,-10,-2,-4,-6,2,13,1,3
-16,22,-6,-1,-5,-23,-71,-7,3
37,6,3,4,6,5,-10,-2,3
-5,1,6,14,4,1,7,-6,3
-13,-3,0,-26,-11,2,-4,3,3
1,-3,-1,0,6,5,5,9,3
-7,1,4,-6,-1,-9,11,12,3
-7,0,-3,13,-5,3,-42,-11,3
16,12,-2,-14,-8,-7,39,3,3
12,9,1,-1,0,0,22,0,3
-7,-7,1,-9,3,-3,-55,7,3
-14,-5,-3,8,-5,-17,118,1,3
-18,-2,-6,13,-5,6,-56,-7,3
12,11,3,14,-2,8,-58,-4,3
0,-11,3,-2,-1,-23,-57,12,3
-2,2,4,-24,17,28,76,5,3
3,36,-7,5,-21,-57,-28,-2,3
11,-23,-3,5,-4,-2,-8,-5,3
-8,14,0,7,0,3,-33,-10,3
6,-9,1,-12,1,8,-5,-1,3
16,-2,7,6,9,-4,18,3,3
-26,-14,-1,-14,-2,8,17,-11,3
-20,-3,-16,-12,-14,-1,29,1,3
11,2,-9,-25,-8,-9,-37,9,3
1,9,3,4,10,16,-3,-3,3
-1,-6,0,21,3,-3,-8,-2,3
-12,-12,-5,5,0,10,25,-5,3
-4,0,-5,-12,-3,-4,2,-2,3
4,-10,0,23,1,7,25,-3,3
3,5,4,4,7,3,0,-5,3
-7,6,0,-5,-1,2,3,-5,3
2,7,-4,6,-8,-8,-54,0,3
-7,-1,-1,-5,5,7,24,7,3
5,1,-3,-4,-2,4,-10,1,3
-3,1,-1,-12,-1,3,15,10,3
3,1,1,3,1,2,-22,-12,3
-3,-8,4,18,10,4,-5,-2,3
-7,5,-3,-35,-4,1,2,10,3
7,7,3,19,1,3,15,-1,3
9,8,6,4,-2,-11,-66,5,3
-1,1,0,-1,0,-2,-33,-2,3
-6,0,2,13,-7,-3,-30,4,3
-7,5,-2,-3,-1,9,45,2,3
-9,4,3,1,1,-9,-27,-6,3
-12,-7,-5,-6,-4,-4,-16,4,3
6,-2,-2,-7,-5,2,8,5,3
-18,-9,0,-18,-1,-17,42,-4,3
-7,5,0,3,0,17,-18,3,3
-10,4,-3,-13,3,10,49,-13,3
9,-3,-1,-8,0,2,25,0,3
6,7,0,6,-1,-7,-20,1,3
-4,-12,-14,-13,-8,14,34,3,3
-2,3,1,-12,-4,-31,-52,0,3
-2,-3,-2,13,-1,-10,25,1,3
0,5,-2,6,1,16,13,-3,3
-4,1,-2,2,-3,-1,-7,-3,3
5,6,4,0,0,10,-20,-2,3
-2,5,-4,-13,2,8,-2,4,3
4,2,3,4,-2,-26,-34,14,3
-6,1,-3,5,-2,2,56,-13,3
-2,-5,4,4,1,5,6,-2,3
-2,-2,1,-12,-1,2,46,9,3
14,9,-4,-3,4,-10,-39,-5,3
3,5,-6,-3,1,16,49,8,3
9,10,-1,14,-7,-25,-53,-4,3
-1,-4,3,32,3,2,-4,-7,3
-1,-6,9,11,-4,10,20,-5,3
-15,-5,2,-26,-1,-11,19,6,3
3,0,0,-2,5,9,-62,1,3
-13,-11,-5,5,4,15,104,7,3
-6,6,-3,2,-2,-8,-77,-7,3
11,9,6,17,-2,1,9,10,3
9,-3,-1,-5,-4,10,29,4,3
4,1,2,8,0,-9,-52,-2,3
2,-2,-5,-25,1,1,25,21,3
13,7,-2,0,1,-7,-20,-1,3
0,-1,8,8,-6,-7,26,-2,3
0,0,-7,3,8,18,-16,-8,3
0,4,-4,0,-10,-9,20,-1,3
-4,1,0,2,-4,-13,-36,-5,3
-2,-5,0,12,7,5,13,5,3
5,11,-1,-23,-14,-1,0,6,3
7,-1,-3,4,4,-6,-48,-11,3
-6,-10,-6,-10,-3,15,77,0,3
-6,-7,0,5,-5,8,63,-2,3
40,12,5,15,5,-4,-44,-1,3
-13,-10,1,-4,6,16,12,-2,3
1,8,1,13,0,-14,-28,-4,3
0,-8,-7,-7,-3,-8,3,-1,3
-7,-2,4,0,-2,2,-23,2,3
-1,-2,2,6,-4,11,-20,-6,3
12,-2,6,-10,2,-13,31,-1,3
-12,8,-8,-8,1,1,68,-3,3
-2,-2,-4,-8,-1,-13,-65,-6,3
1,-11,2,17,2,1,37,-6,3
-13,-1,-1,-10,-8,-7,-59,5,3
13,-1,5,10,-2,5,55,6,3
-8,1,-2,-39,-3,-6,9,-13,3
4,0,-1,0,-4,1,-8,-2,3
-1,-3,-4,9,1,9,-3,1,3
0,-7,-8,-14,-2,1,-18,1,3
-6,-14,2,28,1,10,37,-7,3
13,3,-2,-11,-11,-12,-45,10,3
9,0,0,-12,9,-2,-28,-2,3
4,4,6,9,13,17,-19,6,3
-22,5,-3,8,-3,10,7,-12,3
-3,4,-4,0,-1,4,31,-1,3
5,-6,-4,4,-9,-20,37,7,3
5,-1,-1,-2,-2,-3,-81,-7,3
-13,5,1,-2,1,-7,10,11,3
2,4,2,-9,3,2,19,-3,3
-5,-6,0,5,-2,24,34,-7,3
0,4,-2,-7,3,-11,-28,5,3
-7,-6,-4,-13,-5,-7,-12,-1,3
-8,-4,-2,-11,-1,-1,10,-3,3
9,2,3,16,-4,-5,-40,1,3
-1,-6,-11,-20,-5,5,73,7,3
5,9,2,-2,-3,-1,5,-5,3
6,2,7,20,1,-10,-49,-8,3
-8,-2,0,-5,-1,6,35,5,3
-11,2,3,5,0,13,2,-8,3
6,-10,-1,12,-1,-20,33,16,3
1,2,4,3,-2,-1,-26,-7,3
-2,-1,0,-3,2,-11,-21,1,3
2,7,-3,-1,-1,3,-39,6,3
-1,7,-4,0,-3,-10,60,-10,3
5,-2,-1,-3,0,15,59,-2,3
6,8,-2,-5,-5,-14,-5,0,3
-12,-5,-2,-3,2,-4,-78,-9,3
-2,-2,0,4,4,17,16,-2,3
7,0,-3,-4,0,-4,25,4,3
-1,5,3,29,6,-2,36,1,3
-6,-3,2,-31,-8,-5,-7,-3,3
4,-2,-1,11,3,2,-29,3,3
-2,-1,-1,-2,-3,-5,-15,-3,3
-5,6,4,11,5,3,-36,-8,3
0,6,-14,-26,-9,-10,-9,0,3
-13,-18,4,4,-1,1,27,-9,3
-21,-6,-10,0,-5,-8,-36,12,3
3,-3,0,4,-3,3,-23,-2,3
7,-7,4,11,10,4,98,11,3
10,15,-1,4,-6,-18,-65,-16,3
2,8,-2,8,-6,-1,36,5,3
6,-2,3,-11,3,4,-25,-3,3
-2,12,-6,9,-7,-13,17,-3,3
0,-3,-2,-7,5,5,-36,5,3
-7,-2,3,0,2,7,-29,-5,3
1,7,-5,-14,-5,-9,-4,7,3
-2,0,0,6,3,6,-13,-5,3
3,4,0,-3,1,1,-2,4,3
8,3,0,7,2,5,-2,-8,3
-13,-6,5,-6,-5,-3,66,-3,3
1,-13,-15,-7,6,4,39,3,3
4,5,-1,-19,-9,4,14,2,3
4,-2,-6,4,6,5,42,9,3
-3,-4,-3,-11,-4,-1,-20,-7,3
5,2,10,14,-10,-1,-25,3,3
1,-3,1,7,14,-13,-33,7,3
6,-5,-8,-5,-5,2,19,-6,3
0,-4,-4,6,-1,2,-3,4,3
7,7,-2,5,-7,1,-9,-4,3
0,-3,1,-11,8,-2,22,4,3
-16,-1,1,-4,-3,0,29,0,3
-5,11,0,3,-1,-4,-12,7,3
2,-1,8,-2,-7,-12,-53,-4,3
7,-5,0,-2,0,15,37,3,3
-12,-9,1,-3,-4,-15,72,3,3
-18,-2,-2,-15,4,9,-44,-22,3
12,-1,4,3,6,-1,17,0,3
-9,-7,2,-4,-3,13,-17,-2,3
0,-7,-6,-13,3,-3,-1,-2,3
5,0,-6,-6,-3,-1,-1,-1,3
-13,-2,2,26,-1,-8,1,-6,3
-1,0,-3,-23,-10,-17,-28,-5,3
21,5,2,-3,7,16,-8,0,3
26,3,2,6,6,-4,25,13,3
-10,-1,-5,-3,-3,-3,-40,-12,3
5,-2,0,15,-1,-1,30,0,3
-8,-2,0,0,0,4,17,2,3
-1,-4,-4,-7,0,1,-12,-3,3
6,4,2,-7,-4,0,-12,3,3
-7,2,0,1,-1,-1,4,1,3
-3,6,-2,8,-7,-9,-35,-18,3
-8,-7,-2,-7,0,12,46,1,3
6,1,-4,0,1,6,19,-1,3
8,0,2,8,2,-3,-37,10,3
3,12,1,-11,-2,-7,-76,-12,3
9,2,3,10,-1,-4,28,9,3
-4,8,-3,-6,-2,2,0,-10,3
2,1,3,21,3,11,81,-2,3
-3,-1,-1,-29,-3,-15,-89,7,3
-8,-6,-18,-19,-10,5,-112,-10,3
9,-7,2,-6,1,-16,39,26,3
-16,9,-5,2,-3,7,29,-11,3
16,-5,1,14,-3,-7,49,11,3
-18,-6,-3,2,-1,4,25,-22,3
-8,-5,-3,-3,-1,0,-29,-2,3
5,2,3,11,0,-2,-16,-3,3
12,4,5,-3,1,7,4,3,3
-1,2,2,-24,-6,-7,-7,6,3
-10,2,-5,4,5,17,53,0,3
6,6,-2,-5,-1,-3,-48,-2,3
-10,-2,5,6,-2,1,8,-7,3
5,-4,0,11,0,1,28,1,3
0,1,3,8,-3,-5,-83,4,3
-3,-12,-9,-26,-1,7,6,-1,3
8,-1,-3,2,-5,-14,-1,7,3
0,-4,0,6,2,8,-9,-1,3
-4,-9,4,0,4,8,35,6,3
-16,0,-7,7,-8,-5,-21,-9,3
-19,-1,-4,1,-6,-15,-52,-2,3
1,5,4,10,3,12,57,10,3
3,6,-3,5,-2,-1,-31,-8,3
14,-1,4,1,-2,-5,-13,13,3
-10,-1,-3,2,-3,13,36,-10,3
5,10,3,5,1,-26,0,7,3
-4,0,-4,-24,-5,8,45,-6,3
-4,5,1,1,0,2,-8,-1,3
6,1,-1,-7,2,8,42,1,3
-10,-2,-2,15,-4,-23,-95,-2,3
-5,-4,0,-12,0,5,39,-2,3
9,3,3,-18,-2,-5,53,7,3
3,-1,-5,-10,4,10,22,5,3
-9,-7,-1,6,3,15,8,-16,3
-42,-4,4,14,1,-19,-23,0,3
14,-3,4,17,4,-5,-34,-7,3
-18,2,8,9,-4,9,4,-2,3
-17,2,-7,-17,-3,17,117,12,3
3,4,-2,14,-5,-10,-10,-4,3
-1,-1,-3,1,-4,-27,-18,7,3
-1,4,1,6,0,-14,-73,-11,3
10,6,1,7,-3,-4,-33,0,3
6,-3,-2,-7,-3,8,74,3,3
-5,2,-1,1,3,-4,-68,-3,3
6,1,0,7,4,4,16,5,3
8,4,4,-10,-1,-2,-16,0,3
6,0,-3,-21,-2,4,-10,-1,3
-7,-7,3,51,7,4,-33,-10,3
-9,-7,-17,-62,-7,9,28,7,3
10,4,5,9,5,4,1,-6,3
7,2,6,9,-1,-3,-28,2,3
-14,-4,-3,5,-5,3,5,-7,3
21,0,0,11,5,6,3,-1,3
5,0,-1,-1,7,4,20,5,3
31,15,2,3,-5,-15,-36,-5,3
8,-2,4,-11,10,19,80,-1,3
14,0,-2,9,-6,-14,-98,2,3
-7,-2,-2,-7,-3,-4,-24,1,3
-4,-3,-4,0,2,5,44,1,3
5,-4,-1,-19,-12,-8,20,-4,3
-5,-3,-3,-2,12,0,-5,-5,3
1,-9,-2,0,-3,-18,-22,2,3
-11,-5,-6,2,-7,11,51,-2,3
-1,2,3,6,-6,-13,-22,0,3
-7,4,0,-38,3,32,100,11,3
-4,0,-7,-10,-8,-31,-50,-16,3
-8,0,6,7,7,6,22,0,3
2,5,-5,-39,-4,-1,-1,-2,3
-9,-12,-6,12,-5,-5,22,0,3
-11,-9,-3,14,2,6,-8,-2,3
-1,-2,-1,-2,-5,-4,-40,1,3
-1,1,0,8,7,4,-6,-2,3
14,3,9,18,2,-4,2,1,3
8,3,1,-3,-3,1,-52,2,3
6,1,-1,6,3,-8,-98,-5,3
-8,-3,-6,-5,-2,4,89,15,3
2,4,-1,12,-4,-6,4,1,3
1,-1,8,13,-5,2,34,0,3
7,-3,-5,16,13,18,22,6,3
-5,-1,-8,-23,-3,-10,-99,-11,3
-16,-3,0,6,-3,11,33,3,3
8,7,4,2,4,-4,-31,-2,3
10,1,2,-5,1,3,52,6,3
-1,-5,-1,5,-2,-6,9,-8,3
-12,-8,3,40,2,0,0,-6,3
1,1,-13,-49,-4,14,13,5,3
-2,-4,-4,-7,-3,-2,-1,4,3
6,2,1,0,2,10,-6,3,3
13,3,5,9,-2,-16,-16,-10,3
-6,-5,-1,11,2,8,-5,0,3
18,-9,-2,-9,-2,1,59,6,3
-8,-2,-5,-6,-10,13,-23,-20,3
13,10,1,12,-3,-10,-50,3,3
13,5,10,0,11,-7,25,2,3
-13,3,-8,-15,-9,1,-15,-12,3
-1,0,2,19,-2,1,-12,4,3
-6,-4,5,9,10,10,-14,5,3
-1,-3,-7,-16,-8,2,2,-4,3
-1,3,6,3,1,-32,-101,-7,3
-7,-4,0,16,2,12,73,7,3
-6,2,3,-27,-1,-1,41,-7,3
-3,0,-1,16,-7,-3,3,5,3
-19,-15,-12,0,-1,5,43,4,3
-5,-6,-10,-11,-6,-3,17,-4,3
0,0,-7,-4,-1,-2,16,2,3
18,4,7,15,5,5,17,1,3
-2,4,2,-4,-4,-1,-12,-4,3
15,-2,-2,-2,-2,-8,-14,10,3
-20,-5,3,0,1,6,44,5,3
-3,1,-2,-2,-3,-9,-11,2,3
9,6,-1,-1,-1,2,-58,-4,3
7,3,2,-10,7,1,-18,7,3
-9,3,-5,-2,-4,9,93,-3,3
-5,-3,-3,4,-2,4,-15,2,3
5,-1,4,-4,-7,-9,45,-1,3
-10,0,3,2,4,-6,-45,-8,3
1,-10,-5,-9,-3,5,-63,4,3
-13,-13,-1,26,2,-1,47,-5,3
3,-7,-8,-24,0,6,32,3,3
1,-2,1,-1,-5,-10,21,2,3
6,8,3,-1,0,-8,-17,-3,3
4,-6,-3,1,3,4,13,5,3
-13,-8,-5,-2,-8,-10,-44,1,3
0,-2,-7,-10,-4,2,14,0,3
2,5,-4,-6,-6,-11,-103,-2,3
12,11,11,42,1,-1,80,-3,3
5,10,7,-7,9,10,-68,3,3
3,9,1,-3,-5,-5,56,-3,3
-1,5,2,16,0,-13,16,7,3
4,5,-3,-12,-3,14,-25,-4,3
-11,-2,-1,6,2,-26,-26,-6,3
7,-4,0,-5,-2,5,48,5,3
-8,-4,0,-4,-1,8,13,-3,3
-4,3,-2,-14,-8,-21,-18,-2,3
8,4,-1,2,1,23,32,5,3
-15,-4,0,0,-1,-8,-68,-8,3
-12,-2,-2,-5,1,-4,44,4,3
-9,-7,-5,-19,-6,-1,-12,-3,3
8,3,3,6,6,17,11,2,3
-25,-3,1,6,16,-4,-34,5,3
-10,-5,-10,-7,-7,-8,-28,-3,3
0,3,5,18,2,7,-3,7,3
0,-2,-3,-11,-7,-5,-42,-6,3
4,4,0,-8,-1,1,23,11,3
29,2,2,1,-4,-1,-31,-2,3
2,2,-3,-11,5,-1,8,0,3
-10,-2,2,1,-4,1,72,-7,3
-2,-1,-5,5,-2,-8,-84,-6,3
2,1,1,0,4,9,19,0,3
0,2,-3,-2,-7,-10,41,-10,3
-2,0,3,-1,-2,17,72,4,3
5,3,0,-2,1,-19,-57,-8,3
2,-3,0,0,-1,-15,-1,-2,3
-8,-4,-6,-14,0,19,29,8,3
-14,-1,0,8,0,-8,-17,5,3
-17,2,3,10,-4,8,34,-5,3
11,5,-3,22,5,6,-1,-2,3
-1,0,0,-25,3,-10,-100,1,3
-7,-3,-6,-5,-7,-16,-13,-10,3
4,3,3,19,-1,8,25,-1,3
0,1,6,-7,0,1,-58,0,3
-11,-8,-7,-5,-6,21,58,3,3
7,0,2,31,3,-3,0,5,3
-3,-2,-4,-28,-6,-4,43,1,3
2,4,3,4,6,8,-6,-7,3
9,3,2,0,3,-6,-9,-1,3
-1,-1,2,0,0,0,-19,-4,3
12,-3,0,3,-3,13,4,-5,3
-10,-6,-5,-10,-3,-7,50,3,3
2,3,2,1,0,-10,-80,-4,3
-6,-3,-3,-1,1,-7,20,-4,3
10,-1,0,-4,-2,6,9,-1,3
-13,-3,2,0,5,5,95,6,3
0,1,2,15,-2,-11,-72,-21,3
-14,-8,-10,-21,-2,12,66,0,3
-7,-4,-5,-8,-6,-3,15,7,3
-12,-4,0,6,-8,7,10,1,3
2,0,2,12,3,1,25,2,3
7,3,-1,-24,-1,-3,-21,2,3
-2,2,-2,-13,1,2,-27,-7,3
4,2,3,-4,-1,0,45,-6,3
1,3,-1,5,-9,-20,-37,6,3
2,0,-3,4,-4,5,44,0,3
-4,-3,-4,9,1,3,-18,7,3
9,4,-3,-10,-1,-8,-21,2,3
-1,-4,1,10,0,4,14,-1,3
-6,1,9,25,-1,5,43,-4,3
13,9,-2,-19,6,-2,-83,8,3
-3,5,5,9,-4,-25,-33,3,3
-20,-16,-13,-4,-13,0,92,5,3
-1,-6,-1,7,0,-7,-88,1,3
0,-1,0,5,1,14,48,0,3
10,4,-2,-6,-2,3,-57,-1,3
14,7,6,17,2,0,8,7,3
23,4,-3,-16,0,1,4,7,3
-12,-7,-4,-9,0,-2,27,3,3
4,1,0,-7,-4,-7,-67,-6,3
5,1,-6,-26,-3,-6,41,0,3
-1,-3,1,10,-1,13,3,-2,3
-7,-6,-1,14,-5,-13,22,-8,3
4,-6,-4,-5,-2,4,13,-1,3
-9,-3,5,1,-1,2,-8,-5,3
4,4,4,11,5,-8,-35,-1,3
2,0,6,-10,-1,-6,11,-1,3
-6,0,1,10,3,8,4,-8,3
9,5,2,-3,4,-12,-37,3,3
-6,-3,-3,-8,-5,0,-7,-10,3
-5,-5,-4,4,-3,0,63,4,3
-3,-2,-3,0,-6,-3,-67,-1,3
1,3,0,-1,3,-5,8,-1,3
0,5,1,2,3,-5,-15,-2,3
0,2,5,5,0,4,1,-7,3
2,0,-1,-6,1,7,10,7,3
4,2,1,-13,1,-20,35,7,3
-3,-3,0,-5,-3,-6,8,-1,3
1,-4,-1,4,-1,14,-34,-8,3
-27,-3,-1,7,-3,-16,37,-2,3
18,3,0,-20,1,19,-7,6,3
-1,1,0,-2,8,-5,0,5,3
8,10,6,1,5,5,51,4,3
1,2,0,-10,-3,-5,-74,4,3
-17,-11,-6,1,-2,2,-26,-17,3
-1,-4,-5,-6,-8,-3,-3,2,3
6,1,1,4,1,1,-4,4,3
3,-1,1,-2,2,4,14,-2,3
1,1,1,4,6,2,4,1,3
-1,1,3,-3,-1,3,2,-1,3
0,0,-1,-9,-2,2,-33,-2,3
-11,-7,-10,-8,-6,-14,27,-4,3
-1,-3,-1,-15,0,0,-6,8,3
-5,2,-1,3,0,10,7,-11,3
2,-1,1,-4,3,1,20,8,3
-10,-7,-1,-3,2,13,91,0,3
-11,1,-2,12,0,4,-70,-4,3
7,1,1,0,0,-4,38,2,3
-1,-1,-5,-1,-7,-11,-19,-5,3
25,1,2,4,3,7,-11,3,3
-9,-3,-10,-25,0,16,15,0,3
0,-4,0,2,-1,-15,-43,6,3
-5,-3,-2,10,-3,-2,-1,-1,3
4,-2,1,7,0,-2,23,8,3
6,-1,3,-1,-4,0,30,-7,3
13,5,0,-13,2,-2,-25,7,3
4,4,1,-3,-3,-12,-60,-2,3
-13,-9,-8,3,-5,-6,-5,-6,3
1,5,3,8,-1,8,24,1,3
-9,-6,-3,-3,-3,-9,17,-4,3
-10,-3,-2,3,-1,3,0,-1,3
18,10,2,4,-2,-9,-25,-2,3
-14,-3,0,16,2,14,1,-1,3
-3,0,-4,-22,1,-8,-37,0,3
-2,-3,-2,4,0,10,63,6,3
4,6,4,10,4,-8,-26,1,3
18,-3,-3,-17,-11,-5,0,-2,3
-2,-3,2,5,1,19,61,3,3
-6,-3,-6,15,-6,-26,-96,-11,3
0,-4,-4,1,7,18,21,5,3
-12,3,3,8,-3,-29,70,-5,3
3,1,-1,-4,-2,12,-16,-4,3
3,2,2,-2,-2,0,4,-3,3
-7,-1,1,-4,1,10,65,-1,3
-1,2,0,12,3,-2,-18,2,3
-5,2,-2,4,-4,-6,7,-3,3
11,-1,-2,-2,5,4,52,0,3
-1,2,2,-3,-5,-6,-9,-1,3
9,0,-4,-3,3,4,-10,2,3
-7,-2,0,7,1,-2,7,-2,3
16,1,-2,-5,-2,-2,-16,4,3
1,2,0,-1,-4,0,39,-2,3
6,0,1,10,9,-1,-54,-3,3
-10,-6,-6,-29,0,19,53,7,3
-6,1,-2,3,-2,-16,14,-4,3
8,3,-3,9,1,-11,-113,3,3
-8,-7,-2,-11,-3,4,39,-8,3
2,-6,0,10,-2,9,9,3,3
-15,-6,-1,0,3,4,-37,-5,3
7,3,-5,-17,-10,-23,20,7,3
6,1,1,15,-5,1,-76,-12,3
-12,0,1,12,1,-10,17,-12,3
11,-4,-1,-10,2,27,25,6,3
-15,-4,1,12,5,-10,-36,-16,3
-7,1,0,-3,-3,-16,17,14,3
-2,-4,-4,1,-8,-7,-13,-7,3
-4,1,1,22,-3,-3,9,0,3
-5,2,1,-15,0,12,-1,2,3
-7,0,7,-3,0,8,-14,1,3
13,3,-6,-15,1,-15,33,9,3
9,-1,2,2,2,4,46,10,3
4,-4,-4,4,-3,7,32,-7,3
-7,-8,-7,9,-3,-4,-8,-4,3
1,0,2,-1,-1,7,-33,0,3
1,6,0,-11,-2,-18,-46,-1,3
-20,-4,4,1,-1,11,17,-1,3
1,-3,-6,-2,4,7,59,-5,3
-3,-2,-4,14,1,1,-31,2,3
-8,-2,-3,-27,3,-14,32,8,3
10,-2,-2,-2,1,19,-78,-9,3
6,2,5,1,-1,5,58,7,3
8,4,1,2,-6,-15,-40,-2,3
-5,1,0,14,-2,5,8,2,3
-2,-4,-2,-8,-7,-31,30,2,3
-6,-1,-5,2,-3,7,-21,0,3
10,3,4,-2,-1,-2,-27,6,3
-26,-8,-3,-4,0,-2,-7,-7,3
0,-1,-1,-1,-1,8,12,1,3
-9,-3,0,-5,0,-4,16,-2,3
-4,-2,-2,20,-3,-4,50,-7,3
1,2,2,11,2,-5,-93,-4,3
-5,-4,-3,-22,1,4,49,3,3
5,1,0,-8,-6,4,33,7,3
7,1,6,17,1,3,9,3,3
0,1,-3,-10,-6,-8,-10,-4,3
7,3,-1,4,2,5,22,1,3
10,1,0,7,-3,-3,-30,13,3
-8,-5,0,-9,3,-10,-44,-2,3
-1,0,-2,-8,-6,-5,-11,-8,3
-26,-5,-4,1,-1,12,5,1,3
-6,1,1,7,4,4,21,-2,3
3,2,-2,-16,-1,18,-12,-3,3
4,-3,-3,-8,-1,-16,9,4,3
-3,-1,1,5,-6,-18,-43,4,3
0,-6,-3,-12,-4,15,38,-3,3
-7,-4,-3,4,4,-21,-26,-3,3
0,3,3,27,-1,12,54,3,3
14,5,-2,-8,1,14,55,4,3
4,1,2,5,-6,-9,-52,-12,3
1,3,-4,-10,0,-3,2,3,3
14,3,3,8,2,3,20,3,3
6,1,2,-4,2,-6,11,5,3
6,3,2,-16,-3,-6,-31,1,3
2,0,0,8,-1,1,-4,-3,3
-12,-6,0,1,-1,-13,-48,-1,3
-10,-3,-6,-15,-2,9,35,-1,3
5,2,-7,2,-1,-13,-85,-14,3
-3,-4,-3,-18,-5,-4,-36,11,3
4,2,5,17,2,10,40,8,3
18,1,-4,-1,-8,-8,-25,0,3
1,1,1,-1,6,16,89,4,3
-4,1,5,5,-2,-23,-34,-11,3
2,-1,1,-5,7,25,14,1,3
-13,-2,3,25,-6,-35,-60,-12,3
-15,1,-2,-25,-2,-3,7,11,3
6,-2,-4,-9,-4,20,54,-4,3
1,1,1,-15,-1,1,-5,0,3
13,2,-2,8,6,-8,-67,-14,3
-3,-3,-1,-16,-3,2,34,3,3
9,1,3,10,0,8,7,2,3
-10,-5,-10,-16,-8,-11,-45,-5,3
-2,-1,0,26,3,11,-5,7,3
-10,-4,2,-5,5,-5,-6,-7,3
5,6,10,14,4,10,33,1,3
4,3,-11,-23,-1,-6,15,-9,3
2,0,1,-7,-1,-5,-1,4,3
-6,-12,-4,7,0,-9,-27,6,3
-22,-13,-5,-3,1,25,109,-4,3
1,-2,-1,7,-7,0,-21,-2,3
-10,3,1,6,2,9,4,-3,3
17,5,3,7,-2,-16,-40,0,3
15,3,3,-7,3,-2,-37,1,3
1,-4,-2,11,0,2,59,6,3
-4,-2,-4,-11,5,4,6,-4,3
12,5,3,10,4,0,-31,2,3
1,0,-2,23,-3,-18,2,-6,3
1,6,5,-16,3,-4,6,-2,3
-10,-7,-6,-20,-13,4,96,2,3
-8,-5,5,37,4,12,34,-2,3
-4,2,-9,-42,-3,-7,-25,4,3
1,3,1,4,-3,-16,-9,-1,3
28,4,3,24,4,12,-15,-6,3
1,4,2,3,-2,-4,-10,3,3
-9,-3,0,12,2,-6,-46,-4,3
-12,-6,-5,-6,0,23,59,-2,3
1,3,2,2,-6,-13,-82,-1,3
-17,-7,-9,-11,1,16,76,-2,3
2,0,2,-6,1,2,-41,-6,3
1,1,-1,-1,-4,0,6,3,3
20,-1,3,8,-1,-9,-6,10,3
11,3,-3,-13,2,-1,33,5,3
-14,-6,-2,-3,-8,8,-31,-2,3
-9,-4,4,2,-5,-33,3,-4,3
-17,-8,-9,12,-8,32,25,-5,3
10,6,6,-17,18,5,37,13,3
2,0,-3,1,-7,-14,22,-14,3
0,-3,-1,-6,5,10,67,-2,3
-11,2,9,36,-4,-19,-29,-8,3
7,-1,-11,-39,-7,3,5,6,3
-3,3,1,6,4,14,31,1,3
-11,2,9,27,6,-1,-27,-3,3
-8,-2,-2,4,3,-5,1,3,3
1,-3,-10,-33,-12,1,2,-6,3
-3,-2,-2,-12,2,-3,-41,12,3
-6,-8,-7,-1,-3,20,-5,-13,3
-1,6,3,-2,1,3,74,4,3
17,2,5,23,-4,-3,-30,-12,3
-7,-6,0,5,4,-21,-60,-2,3
0,-5,-5,-3,-5,12,25,1,3
-18,-2,0,-21,10,13,-76,-4,3
-1,0,-3,4,-12,-8,45,-13,3
-1,4,2,3,-11,2,47,7,3
9,6,4,5,5,2,-34,-1,3
2,-3,4,-16,4,-8,-30,-2,3
-4,2,10,10,5,-26,-52,1,3
4,-1,-8,5,-8,29,82,0,3
3,0,0,12,-4,-22,-53,-4,3
-10,-8,-7,-13,-3,4,7,2,3
-6,-2,4,16,1,3,-45,1,3
-5,-2,-3,2,3,-19,39,13,3
3,-3,-10,-84,-11,19,17,4,3
11,4,0,14,0,-30,-13,-2,3
-14,-4,2,20,0,14,26,-7,3
-4,2,-1,8,0,-3,-23,1,3
5,4,7,34,2,3,-4,-1,3
7,6,13,-11,-2,10,14,3,3
-4,-6,-2,2,-6,-15,-48,3,3
-8,-4,0,7,7,7,-11,-8,3
9,-1,-8,2,-6,-5,25,4,3
19,3,-2,-14,5,23,20,-4,3
-1,0,-2,2,-8,-7,4,-5,3
15,6,11,3,20,14,-20,7,3
-7,-2,-5,-1,-3,-2,50,-2,3
1,2,-5,-21,-6,-29,-56,5,3
8,-1,-7,1,-10,14,14,1,3
-5,-1,3,11,2,-25,-62,-19,3
1,-2,-1,9,3,7,29,5,3
4,1,-3,-33,-3,5,39,15,3
8,2,5,8,8,1,-40,9,3
6,-1,-8,-32,-20,-23,-1,13,3
3,2,2,9,-3,-1,-12,-1,3
-2,-3,1,30,0,5,14,-2,3
2,3,-2,3,0,-14,8,-2,3
5,4,4,2,1,5,33,-3,3
-14,-8,-6,6,-4,15,26,-1,3
-4,-4,-5,5,10,5,46,-1,3
-11,-7,-5,-13,-4,-3,92,3,3
-7,1,-4,8,-3,31,19,-16,3
18,10,4,-1,4,-32,-105,0,3
7,-1,1,-7,-1,14,-27,-13,3
-4,2,2,5,-7,-17,47,9,3
22,-5,-2,-12,6,-5,-87,9,3
-8,0,2,1,-1,0,-17,-10,3
-1,0,9,24,2,-11,-5,-14,3
1,0,-10,-37,-11,10,-40,-1,3
-3,0,1,16,-2,-27,15,2,3
0,1,-6,-31,-4,-6,-39,2,3
-1,-3,2,39,2,5,23,-1,3
-18,-6,-3,0,0,16,5,-9,3
-5,-3,-8,-26,-6,0,10,1,3
9,5,7,29,9,-1,-55,2,3
1,0,-5,-27,-11,-4,61,7,3
-2,-1,0,-1,9,-19,-38,-17,3
-1,3,0,7,7,25,-76,4,3
-14,-10,-6,-10,-8,34,77,7,3
4,0,-3,-3,-10,-30,-63,4,3
11,1,-1,2,9,-2,-30,18,3
1,-1,6,6,-3,-9,23,-7,3
-13,1,3,-1,10,22,11,1,3
-8,0,-5,-14,10,-18,14,-3,3
13,2,0,6,3,21,13,-1,3
3,6,3,9,-4,-11,-1,1,3
2,3,7,18,0,-6,-26,-11,3
-17,-10,-9,-59,-19,19,76,-5,3
-5,-7,-5,3,0,-13,-27,3,3
-9,-6,-7,-6,2,25,48,-3,3
5,2,2,4,-2,-30,4,-2,3
4,6,10,38,7,2,-59,-13,3
-7,-1,-2,-13,-6,31,-6,4,3
10,3,-6,-5,-10,-28,-18,2,3
-22,-3,-2,16,1,-6,2,-6,3
-5,0,-4,-12,3,-10,-57,-5,3
-7,-4,4,10,3,2,11,-3,3
-15,-7,-5,-13,-7,5,-24,2,3
-4,-1,1,11,6,-8,-31,-4,3
3,-2,-4,8,-7,-8,105,6,3
6,6,-1,3,-8,-10,-78,-4,3
-2,4,2,4,8,23,13,-15,3
2,-2,0,-22,-6,-28,3,11,3
-8,-6,-2,-4,3,38,10,5,3
-9,-6,-4,3,1,-29,-8,-5,3
-3,-3,1,20,2,-5,32,-6,3
5,2,-8,-19,-11,19,-24,1,3
16,4,5,-14,-4,-23,-28,9,3
11,7,7,14,10,21,88,4,3
-2,-4,-4,1,0,11,40,-5,3
-2,-3,-4,-5,-5,1,58,-8,3
-3,2,1,34,0,0,-82,-12,3
-10,-1,-5,-45,-3,-10,16,-8,3
-4,-1,-2,-33,-2,-3,-58,12,3
14,0,5,-3,11,4,80,10,3
-2,-2,-14,-3,-18,12,88,-4,3
1,2,3,18,-1,7,-45,1,3
-3,4,0,-2,10,-11,-6,-2,3
15,4,-2,-9,-3,9,-41,1,3
-7,2,3,-6,1,-20,-26,0,3
1,-4,-2,11,-3,2,7,-3,3
-10,-7,-9,-8,-9,-4,50,12,3
5,2,9,23,8,1,-75,-6,3
10,-3,-3,-16,-4,8,20,10,3
2,2,-2,8,-7,-7,-14,-7,3
10,3,-1,-16,-3,-14,-31,0,3
-12,-3,3,13,5,-4,-21,-2,3
5,-1,-8,-17,-5,3,-15,1,3
14,-6,0,11,1,-2,28,9,3
-1,-6,-1,2,3,-4,-2,-16,3
7,1,6,24,3,-2,-2,1,3
8,-1,-3,6,-1,6,28,-1,3
3,1,4,8,5,19,82,2,3
-2,4,2,1,7,-21,-1,-4,3
-13,-1,-7,-21,-10,-5,11,6,3
-1,1,6,10,11,-1,-64,-9,3
-6,-3,-7,-28,-9,0,-20,13,3
4,0,7,16,5,27,85,11,3
-20,-3,-9,-24,-14,-15,-34,-2,3
0,0,0,1,5,-5,-61,-1,3
-14,-6,-2,8,-1,-3,-11,-7,3
-6,-1,5,8,0,2,2,-12,3
-1,-4,9,21,2,1,-8,6,3
-6,1,2,-26,-4,-2,9,5,3
-4,6,1,17,3,3,-19,-12,3
12,-1,-25,-86,-15,-15,-41,15,3
3,-3,-5,-15,0,5,29,0,3
-23,-9,-4,19,-1,-5,-2,-5,3
-6,1,12,25,1,-17,-88,-13,3
14,9,20,34,18,-4,-36,18,3
-11,-2,-6,-5,-8,-1,49,-23,3
-21,-8,-10,-2,-16,14,115,10,3
14,3,-8,-8,2,6,-114,-1,3
-3,-2,-1,15,-6,6,13,-11,3
21,6,1,-13,6,-13,-82,9,3
-7,0,6,0,5,10,3,-6,3
-6,-2,-3,-6,6,10,47,0,3
-5,-4,1,6,-12,4,42,5,3
-7,-3,-7,1,5,9,6,-5,3
10,3,-3,-2,-7,-25,-68,-4,3
-1,-1,11,50,2,14,-12,4,3
-9,-8,-2,-3,4,-32,-28,-3,3
4,-6,-22,-53,-10,5,19,17,3
2,2,3,12,7,-1,-1,-11,3
9,0,-4,-17,-1,2,15,4,3
-13,0,8,36,-4,0,-5,-12,3
-8,0,4,15,-5,-3,21,1,3
11,10,1,-4,10,1,-37,0,3
13,-2,2,-21,-7,-10,96,-2,3
-14,-6,-4,0,1,10,-74,-2,3
-3,-5,-8,-17,-7,24,88,1,3
5,1,-4,1,1,-15,-104,-5,3
-11,0,2,-10,-4,-9,25,7,3
5,3,2,-5,-3,-8,-30,2,3
7,1,7,16,4,7,-15,-4,3
4,2,2,6,0,2,7,14,3
-8,-5,-7,-17,-11,-3,-17,-14,3
3,-7,-7,9,-8,-8,-6,0,3
-1,1,8,6,2,-5,-36,-2,3
0,-2,-2,-1,2,0,57,12,3
-6,-2,0,21,2,-8,-12,-13,3
-1,-1,6,9,7,8,-9,-2,3
-1,1,-14,-58,-13,-16,-10,-6,3
11,5,16,44,5,12,17,5,3
1,2,-16,-68,-10,-14,-13,10,3
1,0,1,21,-1,-22,-7,-8,3
25,2,2,16,2,0,-37,-7,3
29,-4,-2,-14,-5,11,-16,1,3
-7,0,2,15,11,-5,-41,-11,3
1,2,0,-3,-1,31,109,2,3
0,4,1,2,-1,-7,30,3,3
-5,2,0,-4,-2,-12,-71,-18,3
11,4,6,12,2,6,9,2,3
7,1,-3,-22,-5,2,17,0,3
2,2,2,16,-4,9,-18,7,3
-14,-5,1,-6,3,-13,27,3,3
-8,-5,-7,-6,11,2,-31,7,3
-14,-5,-7,-17,-6,14,58,-5,3
-3,2,3,18,-3,-14,-39,-3,3
-7,0,1,3,-1,3,8,-6,3
5,0,8,5,-2,-9,-23,12,3
4,-2,-10,-44,6,7,20,6,3
0,2,2,3,0,-6,-33,-9,3
-10,-7,-3,4,3,16,67,2,3
9,1,4,3,3,4,64,-8,3
8,3,5,25,3,1,-96,-18,3
-13,-4,-1,4,-8,-16,20,-2,3
-22,-2,-8,-29,2,0,-12,-3,3
-8,4,3,0,2,14,-9,3,3
-26,-9,-5,-3,-7,-11,-56,-14,3
13,-3,-3,-2,6,4,27,9,3
1,-3,0,4,0,-7,22,3,3
9,4,-2,-3,-6,7,13,4,3
21,10,7,3,-2,16,23,3,3
0,-1,4,13,5,-19,-49,-1,3
-11,-8,-7,-3,1,-8,-28,-4,3
-3,-3,-11,-12,-10,10,17,4,3
2,4,4,15,1,-11,-8,13,3
-13,0,-4,-4,-5,4,74,-6,3
12,7,9,29,6,6,-38,-3,3
-4,-7,-10,-47,1,7,0,-2,3
-7,0,-7,2,-17,-36,-84,-24,3
2,0,0,-5,9,41,59,25,3
17,4,4,19,6,-10,26,10,3
-26,-4,1,4,-10,-28,-16,20,3
14,7,0,-15,3,8,-30,-28,3
-2,-2,-1,11,-5,-5,-24,-21,3
-5,-7,-5,-12,-4,3,56,20,3
4,4,5,13,9,-2,-93,-8,3
10,2,3,5,3,13,46,31,3
-2,-1,1,24,-3,-7,-73,-4,3
3,-2,-5,-33,-3,9,6,-7,3
9,0,3,25,3,-11,-12,2,3
-11,-10,1,-22,5,-6,10,2,3
-4,3,-16,-20,-9,11,44,0,3
10,14,4,2,-6,6,-34,-5,3
5,10,6,20,6,3,38,-5,3
-15,-12,-6,10,-1,-3,-18,0,3
-11,-11,-2,-3,-2,-11,-7,2,3
1,0,-2,0,-3,21,-6,1,3
5,5,6,5,7,-15,16,-4,3
6,9,10,16,4,-24,-12,1,3
-5,-6,-4,-8,6,1,22,8,3
-18,-14,-8,2,-15,8,-4,-10,3
9,-9,-5,-6,7,11,17,4,3
-32,-5,-12,-23,-15,-26,17,-16,3
19,10,10,-4,9,-2,1,21,3
4,12,7,22,2,0,24,-4,3
4,2,3,-16,-4,10,15,1,3
12,3,-3,18,20,11,-19,1,3
6,9,-8,-15,-16,-19,-74,-12,3
3,0,-4,-18,-2,-7,28,12,3
-4,-6,16,29,-1,-5,-14,-9,3
24,-3,-19,-34,-15,4,32,6,3
-3,-1,5,13,4,-3,-9,-4,3
-1,-3,-5,-19,-3,-8,-37,0,3
-8,-2,5,18,-1,7,-13,-17,3
4,2,9,12,6,7,30,12,3
6,0,1,3,4,7,10,-4,3
-18,-2,-5,-6,-8,1,9,-6,3
-6,0,-6,-13,9,-7,-7,-11,3
-10,-10,4,4,1,13,26,4,3
-25,-7,-7,-21,-14,-36,-63,-1,3
0,8,0,10,5,39,100,-3,3
11,19,-11,-3,-10,-6,-104,-11,3
14,10,9,-10,-4,0,39,15,3
-5,-8,3,20,14,67,21,-8,3
-17,-18,-2,-2,10,-49,-15,8,3
10,-24,-15,8,-6,6,8,-6,3
-34,-20,-1,26,-2,-9,-8,-3,3
-28,-1,-7,-52,-10,12,31,5,3
28,8,12,38,3,7,8,9,3
3,9,-12,-54,-10,-14,-45,-4,3
32,13,2,11,-2,-1,-23,-19,3
16,1,16,6,10,-3,18,6,3
4,5,-13,-35,-5,-1,-27,-6,3
29,8,2,-17,0,-9,-1,2,3
-13,-8,-1,-4,-8,8,93,19,3
1,-1,-2,12,4,-6,-3,-6,3
-1,2,6,10,1,-11,-28,-10,3
-7,-8,0,3,-5,11,35,12,3
-2,1,2,-3,3,9,-19,-7,3
-3,-4,-3,13,1,-8,13,4,3
11,-1,-2,0,-7,12,-5,0,3
-34,-11,-3,3,2,-7,26,-1,3
-2,-2,5,-8,10,16,26,15,3
10,11,3,12,16,-19,6,-5,3
1,0,-9,-14,-8,3,26,0,3
-12,-3,1,4,-4,0,-14,-1,3
4,-2,-1,3,-3,-4,-3,-5,3
0,-5,1,2,-5,2,-4,1,3
-6,-3,2,-13,-12,3,-29,-3,3
-14,-7,2,10,13,-6,79,-5,3
5,9,1,6,-1,-11,4,2,3
8,-2,1,19,0,11,47,-3,3
-7,2,-4,-13,0,-13,-49,-13,3
17,-2,-7,-4,-17,9,76,19,3
-12,-1,-6,-12,0,-2,-43,-20,3
-2,2,6,19,3,-8,-13,0,3
-7,-1,-2,-38,-9,-2,-9,7,3
4,3,-2,-11,4,5,6,3,3
-8,0,-4,-5,-4,-1,16,2,3
6,2,-1,-1,-7,-10,-56,-9,3
1,-4,0,6,9,-4,-7,5,3
-10,-2,1,19,-1,-3,-32,-7,3
3,-2,-3,11,3,-1,-13,17,3
-2,-4,-7,-24,-7,-1,-8,-7,3
2,0,-2,3,2,10,85,-4,3
4,6,4,0,-1,-26,-67,-4,3
1,2,4,8,-11,33,78,4,3
13,6,-1,2,1,-17,-38,0,3
-3,-8,3,8,12,19,44,3,3
5,9,1,1,-2,-17,-27,-6,3
-7,-9,-2,0,-3,-15,-41,2,3
-8,-4,-5,-9,-8,-5,-3,-5,3
-7,-2,0,1,-1,-11,-26,0,3
-2,-3,3,-3,0,24,15,11,3
7,5,-4,-7,3,-10,-22,-3,3
-9,0,-2,1,0,6,39,-2,3
29,8,2,14,-1,-6,-39,4,3
-8,-2,2,5,3,3,-22,-5,3
-1,-2,0,-26,-3,-5,-76,-5,3
8,1,-1,-11,0,10,24,17,3
-10,-2,-4,-10,-10,-26,-72,-24,3
16,0,-1,-7,-7,3,21,7,3
-8,-4,1,13,9,6,8,11,3
2,1,-1,9,-1,4,-34,2,3
0,2,3,3,3,-2,-43,-12,3
-16,-8,-3,4,-4,-5,42,-10,3
-2,0,1,-1,-9,5,63,-2,3
3,-4,0,19,-1,-2,43,5,3
-2,0,-2,-20,-3,0,16,9,3
4,1,-1,2,2,-2,-45,-8,3
0,3,0,3,3,4,49,3,3
-1,0,-1,-6,-5,8,2,-4,3
5,1,1,19,0,-11,-13,0,3
-4,0,-2,-2,-6,2,-25,-2,3
-1,4,2,-3,-1,0,-4,-1,3
-2,-2,-1,8,1,0,32,-5,3
-4,-5,-8,-40,-5,-10,7,14,3
-6,1,-4,4,0,1,81,-3,3
8,3,-1,3,0,-4,-74,-5,3
10,4,-1,-8,-2,5,-34,6,3
-1,-2,2,32,-5,-14,-10,5,3
10,1,7,-12,10,6,59,21,3
-18,5,-15,-13,-9,-1,-11,-38,3
6,-1,4,-2,-3,-5,33,14,3
5,4,2,9,3,12,10,3,3
-3,1,0,14,-2,-8,-26,-16,3
2,-3,-1,3,0,-5,-31,10,3
-6,-2,0,-7,0,4,-15,-4,3
-5,-5,-3,9,1,7,78,1,3
4,3,4,33,2,1,-96,-4,3
-8,-7,-3,-28,-4,-19,-16,-3,3
3,3,-6,-11,1,13,44,-4,3
7,2,-3,-3,5,4,-6,1,3
-8,-6,-4,-2,-2,5,43,4,3
3,-3,3,10,1,-1,2,3,3
4,4,1,5,-7,-7,-49,7,3
-13,-1,-1,-3,-4,4,-27,-14,3
-2,0,1,-17,-4,-6,11,0,3
3,-1,1,18,6,0,7,-3,3
10,1,3,-7,-1,-22,8,15,3
-1,-1,-1,0,1,12,-14,-8,3
-9,-1,-1,17,-1,-15,-42,-12,3
4,-6,-4,-29,-8,11,79,17,3
-5,0,-5,-7,4,7,-7,-2,3
2,1,-1,13,-3,-12,-83,-6,3
-4,-7,-5,6,-4,10,95,24,3
-1,7,2,8,2,-16,-123,-31,3
12,-6,5,12,4,6,17,3,3
-11,5,-7,-30,-3,-3,10,15,3
-3,0,1,-30,1,12,23,-5,3
-4,-1,-4,2,2,-3,38,15,3
-16,-7,-2,20,3,1,6,-13,3
-6,-2,0,9,-2,-3,-2,-3,3
5,3,-1,-8,-1,5,35,11,3
5,7,1,7,-2,2,-39,-1,3
-2,3,2,2,-1,-6,-50,-9,3
3,-3,-1,-4,3,2,24,3,3
-4,-5,-9,-12,-6,2,-22,-11,3
5,-3,1,7,4,1,-17,5,3
-15,-2,-4,9,-12,-10,13,-9,3
1,5,2,-9,5,-18,-55,1,3
2,9,1,2,1,9,2,-6,3
2,-1,-1,-1,-5,1,-1,-7,3
-3,1,3,-6,4,-1,-14,-2,3
4,-2,6,23,0,14,20,4,3
-6,-3,-4,-32,-2,-24,-64,-6,3
10,3,0,25,3,19,94,16,3
-16,-2,-6,-15,-7,-1,42,0,3
-13,-4,-1,2,-2,-1,24,-5,3
5,0,-3,5,5,-1,-6,-5,3
-3,1,7,-3,0,2,33,1,3
-4,-1,2,2,-4,-1,-46,0,3
2,-1,-2,1,2,2,24,6,3
-9,-6,-1,1,0,2,-6,4,3
-6,-7,-1,-1,-3,-13,-1,1,3
-3,-5,-7,-9,0,-2,-36,-4,3
-1,1,4,13,0,5,4,-7,3
-1,2,2,6,3,8,16,4,3
9,2,-6,-19,-7,1,-19,-8,3
3,7,2,2,4,8,-13,1,3
20,-2,1,-11,1,-1,-14,-4,3
-3,-1,0,7,-3,-5,1,5,3
-8,0,-3,5,-3,-13,-43,-6,3
3,0,0,-1,-2,12,-28,0,3
-5,-1,-5,-1,-2,1,37,0,3
13,1,2,-5,-1,-7,-43,3,3
4,-3,-7,-9,-2,0,66,15,3
7,1,2,6,2,-10,1,-5,3
-5,-3,1,11,-4,13,40,-5,3
4,0,-2,-39,-10,-14,-47,-2,3
-1,-1,-1,-2,2,9,38,-2,3
0,-2,-4,2,-6,-11,42,12,3
-3,-4,0,-13,2,-1,1,-5,3
-2,5,4,22,1,3,10,-2,3
4,4,1,4,-1,4,-42,0,3
-4,0,-3,-12,-4,-7,6,-2,3
1,2,8,11,5,-2,-38,4,3
5,-1,-1,-6,-7,-7,9,2,3
7,1,-4,-15,-7,-18,35,2,3
-4,-3,-4,10,3,3,-34,-4,3
6,8,-4,-12,-8,-1,-49,-6,3
-2,0,3,6,1,6,37,0,3
-3,-3,2,4,2,6,2,3,3
2,4,2,1,1,-2,12,-3,3
-1,-1,1,-5,1,-1,-6,4,3
12,-2,-7,-2,1,3,23,-4,3
-9,-3,4,12,4,2,-25,1,3
3,1,2,9,5,10,4,1,3
-5,-2,-5,-28,-5,-10,-31,1,3
15,-3,1,3,3,10,45,1,3
-2,3,2,10,-1,2,-15,-2,3
7,3,-6,-8,0,-6,-46,0,3
6,2,1,5,0,-6,60,-3,3
-5,-3,-6,2,-10,-2,-12,-2,3
-9,-3,-3,4,11,2,2,-1,3
2,2,0,-24,-1,1,-6,2,3
8,1,-1,-5,0,5,21,8,3
-22,-3,-7,5,-3,-4,-48,-13,3
-1,0,0,-2,-8,-2,8,1,3
-3,-1,2,43,4,-4,7,-6,3
-8,-2,-8,-24,-10,2,26,15,3
3,3,-2,-9,1,-2,8,5,3
5,3,0,-23,2,2,-8,1,3
-2,-4,0,2,2,0,8,-3,3
-7,-9,2,26,0,1,3,-5,3
-21,-5,-2,0,1,-2,7,-4,3
2,3,0,5,0,2,-49,-2,3
4,4,3,-7,5,11,86,8,3
3,5,2,9,1,-2,16,1,3
-4,4,1,0,-1,16,14,8,3
-23,-7,-8,3,-10,-26,-9,-17,3
3,-1,-3,-9,-2,9,23,-10,3
-6,-3,-4,-6,-6,-6,-46,4,3
9,4,3,17,3,5,2,3,3
4,6,8,-14,1,-2,-41,-11,3
-1,-1,-5,-16,-5,-5,46,0,3
-2,-1,-1,29,-2,-3,37,-3,3
4,-1,-8,-28,-1,-8,-32,0,3
11,2,7,26,4,13,11,7,3
-3,-4,-3,-32,-10,-16,-53,-3,3
2,0,-1,6,3,9,22,1,3
2,1,5,14,3,-1,7,-2,3
4,2,0,-2,0,-5,-9,2,3
-10,-2,1,3,-3,13,49,-3,3
0,3,3,5,-1,-8,-7,1,3
-5,-3,0,3,-4,-5,-72,-5,3
5,-5,-3,-11,2,-3,-11,5,3
-16,-2,-3,7,-4,9,15,-5,3
50,6,3,-5,-1,-7,1,11,3
-1,1,2,17,-2,-9,-5,-1,3
-9,-5,-6,-6,-2,4,15,-4,3
-4,-4,9,49,2,10,-13,2,3
-9,1,-10,-43,1,-14,-31,-17,3
1,-3,-2,-1,-9,-13,-16,0,3
-1,-1,3,4,-5,-2,13,10,3
4,1,-2,6,1,7,5,2,3
-18,-7,-2,-10,-2,-3,-15,-7,3
12,5,9,18,2,1,-6,0,3
3,2,-5,2,-6,0,25,1,3
3,-1,-5,-16,0,-3,-37,0,3
-9,1,1,16,-2,6,58,1,3
-4,-5,-3,-21,3,-2,41,-7,3
1,-2,0,6,1,5,31,4,3
11,5,-1,-10,-3,-5,-15,10,3
3,1,1,-1,5,6,-3,8,3
-7,-2,1,3,0,-6,-13,-14,3
-11,-1,-4,-6,-2,2,-1,1,3
-8,1,3,11,2,-5,-2,-5,3
1,-2,-1,-17,-6,-3,-35,-5,3
-4,-3,5,30,1,5,20,4,3
6,4,0,-37,-2,0,-25,4,3
-6,-2,-6,-13,-8,-8,22,-3,3
2,1,-1,17,8,9,-8,-1,3
-3,0,-3,4,-2,4,54,4,3
-1,-2,0,6,0,-12,-35,-2,3
5,2,3,-7,3,-1,31,6,3
-2,-3,-1,0,-3,-14,-90,-4,3
10,4,0,-14,1,-5,11,9,3
3,-5,-5,-1,-4,6,42,-8,3
-10,-3,-10,-7,-9,-19,-100,-18,3
-15,-7,0,9,-1,10,30,2,3
-5,1,-7,-12,0,6,-5,-2,3
8,4,5,11,3,-1,-11,5,3
-16,-2,2,-2,-2,-3,26,-5,3
12,2,2,5,-5,-2,-17,-9,3
-6,-1,3,-6,-2,-3,17,1,3
-1,1,0,-11,-2,2,10,4,3
13,2,-8,-50,7,11,-10,0,3
-8,-4,-1,13,-2,-6,8,6,3
-1,-3,0,-14,-1,6,16,-1,3
2,0,-1,3,0,5,15,-4,3
8,2,4,22,-1,-5,-8,1,3
-2,-5,2,-5,2,6,35,10,3
5,1,-3,-2,0,4,-6,0,3
-8,-5,-5,10,-1,0,0,-4,3
3,0,-1,2,-4,0,-8,10,3
5,0,0,8,5,7,47,-11,3
1,-2,-1,3,1,-4,-44,-7,3
-11,-2,-4,3,0,2,9,-2,3
9,2,2,-5,1,-4,-9,6,3
-6,1,-3,-3,-8,5,7,-8,3
-1,2,2,-5,2,-11,-16,5,3
0,2,-2,-16,3,-2,-16,1,3
19,-1,3,0,-5,-3,58,9,3
-5,2,2,0,5,-5,-97,-15,3
6,5,1,6,-1,17,76,-1,3
-1,2,0,9,-6,-8,-3,6,3
-12,-1,-1,15,0,-4,10,1,3
-4,-1,3,-1,-1,-5,1,-5,3
-3,-6,-12,-21,-6,3,16,8,3
-1,2,13,25,3,5,9,-1,3
2,3,-7,-6,1,3,-43,-9,3
2,-3,-3,-19,-7,-6,37,2,3
-5,-2,0,13,4,0,-36,-4,3
-2,-5,-6,-5,-4,-1,12,0,3
-3,-4,3,14,1,1,-33,-2,3
-12,-2,-1,1,0,-6,-72,-3,3
1,1,2,-3,-4,-8,-29,0,3
9,3,-5,-10,2,1,-6,4,3
1,0,-1,-6,7,10,8,-10,3
0,2,-6,0,-10,-8,29,-2,3
-12,-3,-2,-4,-4,-8,2,3,3
3,3,1,4,7,4,-10,5,3
1,-1,0,1,-2,-11,-9,3,3
2,0,2,8,4,5,-13,0,3
2,-2,2,1,1,2,1,2,3
-7,-4,-4,-30,-4,-3,-2,-2,3
-7,0,-3,17,-2,-1,8,2,3
-16,-4,4,-38,1,4,50,0,3
-2,0,-8,-13,-5,-1,-1,-2,3
14,-1,-4,5,0,-1,9,2,3
2,-1,3,4,2,3,-21,-7,3
2,-1,-2,18,0,-4,39,17,3
-19,-1,-2,-11,1,-7,-100,-24,3
-6,-2,2,-7,5,18,100,8,3
-4,-3,-11,-7,0,-5,76,-7,3
3,-3,-3,5,1,2,18,4,3
-1,3,3,4,0,-7,-40,-2,3
-3,-1,-3,8,-1,-2,39,-4,3
1,1,2,-1,-4,-7,-74,4,3
8,3,-2,5,2,23,89,-3,3
5,-3,0,1,-3,-12,77,9,3
2,2,3,2,-4,-5,-30,-6,3
5,-1,3,0,1,0,20,11,3
-11,-4,-5,1,-2,1,-38,1,3
2,-1,1,6,1,5,0,-1,3
4,1,-3,-21,-3,-4,-26,8,3
1,4,4,4,-1,3,25,-3,3
12,0,-1,-12,4,-4,-40,-9,3
7,3,0,4,0,5,12,2,3
3,-6,-6,9,-9,-15,-32,-5,3
-5,-2,-1,0,3,8,-11,-3,3
-1,0,0,0,-4,-5,-12,-1,3
10,2,1,3,5,9,22,10,3
-2,1,1,3,-2,-6,-33,-13,3
-3,-2,-2,-3,-5,12,59,-8,3
12,1,-4,6,-5,-20,-60,11,3
-3,1,1,7,-2,-11,-49,-7,3
-2,4,3,9,1,11,26,4,3
13,-4,0,-1,2,0,-2,4,3
-12,1,0,-2,2,1,3,-1,3
4,-1,2,-4,4,4,2,-2,3
-1,2,0,7,-2,-5,-29,-4,3
6,2,-1,2,-6,-9,-18,2,3
-3,-2,-1,-3,-1,2,-6,-7,3
-10,-10,0,-4,0,4,9,-2,3
14,-2,-2,-1,-3,1,-4,-2,3
0,0,0,10,-1,-5,7,1,3
0,1,-3,-14,-3,13,1,-7,3
-8,1,-2,6,1,-9,23,4,3
-10,-5,0,4,0,-3,-16,-10,3
0,-4,3,1,-2,1,21,8,3
-7,-1,4,22,-10,-6,-33,-8,3
8,0,-3,-13,-3,10,-12,-18,3
-3,-2,0,1,2,-10,5,0,3
-3,2,-3,-5,-2,-3,-21,2,3
-5,-1,4,9,-1,-5,50,2,3
18,4,0,-2,3,8,42,14,3
2,4,0,0,1,-1,-57,1,3
-8,-3,1,-4,4,3,58,-8,3
-28,-5,-3,-5,2,-2,19,2,3
-14,3,1,0,-3,-4,-15,1,3
1,0,-1,-3,2,10,40,-1,3
0,0,1,22,3,-4,-24,5,3
12,0,-7,-30,-1,-2,-11,3,3
5,0,-2,-3,-1,1,15,1,3
-11,-3,0,1,-5,1,42,-3,3
-6,0,3,37,-3,-2,-43,-10,3
5,0,-5,-16,5,0,10,6,3
12,-4,2,-1,-7,2,-15,-7,3
-5,-1,-1,12,3,-12,1,-4,3
0,-4,-3,-22,-2,2,-1,7,3
13,0,0,9,4,0,-33,-13,3
0,-4,-3,-2,-6,-4,-23,6,3
4,-2,1,8,6,22,-6,5,3
-3,-1,-5,-16,-8,-17,13,-1,3
6,4,4,11,0,-7,-25,3,3
-14,-1,-2,-2,7,0,-8,6,3
-3,3,0,-1,-7,-8,40,-5,3
1,2,-1,-11,-1,1,-22,3,3
7,0,-5,4,-2,8,-14,1,3
25,1,0,4,-4,-8,12,-12,3
0,2,6,11,-2,3,-8,7,3
-7,-3,-7,-38,5,4,11,0,3
2,1,-2,-5,1,-2,48,7,3
-4,1,3,10,-2,2,-28,-1,3
-6,2,0,2,-2,-5,-13,-5,3
5,2,8,7,0,4,13,-2,3
13,-1,-9,-23,-6,-1,-51,8,3
-5,0,-4,-5,2,-2,12,-2,3
0,0,-1,3,-2,0,21,3,3
-2,1,0,10,0,2,-17,-6,3
-3,-7,3,12,3,3,35,3,3
-7,0,-1,1,-3,-3,48,-1,3
-11,-7,-2,-11,3,-2,-77,-11,3
10,-2,-4,-5,-4,3,-2,2,3
-11,1,1,8,0,1,23,-4,3
6,1,-4,-4,0,-1,9,11,3
5,1,1,1,-5,-1,-4,-3,3
9,-1,-3,-11,0,-8,-44,-4,3
-1,3,5,18,4,1,13,-2,3
-8,-5,-7,10,-6,2,-15,2,3
-5,-2,-4,9,1,2,40,2,3
-14,1,5,5,6,-3,-37,-9,3
7,1,-5,-27,-12,-6,1,-4,3
4,1,2,3,0,7,19,5,3
3,-2,-3,-13,-1,-3,-17,1,3
-3,-4,-3,10,-4,-1,13,-1,3
-6,-2,2,11,1,-5,9,-1,3
-3,5,3,-5,0,11,1,-6,3
5,1,1,4,0,-16,-79,15,3
-12,-7,-6,-9,-3,-7,-43,-30,3
1,-1,-4,-2,-4,3,6,3,3
-2,-3,-3,-9,1,-1,5,3,3
5,4,2,-3,-2,7,-1,3,3
4,4,4,0,4,-7,6,12,3
-8,-7,-6,-4,0,-7,-28,-10,3
-7,-3,-4,6,3,3,-2,-5,3
9,1,1,-4,-1,1,6,8,3
-4,-2,-1,-1,-1,3,62,5,3
3,-2,1,12,1,2,12,-9,3
-8,2,1,-2,-2,-5,-52,6,3
-10,-3,-10,-16,-6,11,93,-1,3
1,2,3,-1,3,3,-11,-3,3
-11,-3,-5,-17,-4,-2,-18,3,3
-8,-3,-2,7,-2,-5,-7,-2,3
2,3,1,-12,3,-3,-6,-6,3
1,6,2,13,-1,3,-20,4,3
5,1,-3,8,2,5,19,7,3
-1,1,-5,-15,2,-14,-28,-10,3
1,2,-1,9,-6,5,38,-5,3
-1,-4,-1,-3,-6,-14,-26,-12,3
2,-1,3,-1,0,1,25,6,3
-2,0,0,-2,-1,1,-40,2,3
-8,-3,0,4,0,-7,-12,-8,3
-23,-9,-7,-3,-4,2,-35,-7,3
-4,-1,1,0,-1,-4,13,-5,3
-4,-4,1,-2,-4,10,-6,2,3
7,4,3,0,4,-20,25,-1,3
2,1,-1,-7,-2,11,-9,1,3
-14,-1,3,19,6,2,-16,-3,3
-5,-6,-3,-21,-3,-4,29,0,3
3,-2,-1,3,1,12,-5,-2,3
2,-7,-12,-22,-4,-8,2,1,3
7,3,4,9,-4,-1,1,1,3
3,-1,-5,-18,-3,-1,27,1,3
0,-1,0,3,-8,-8,-1,-8,3
19,5,3,8,9,10,69,15,3
4,2,2,-2,3,0,-3,-13,3
5,1,1,9,2,16,-21,10,3
-5,-4,-5,-5,-1,-14,56,7,3
2,0,-4,-1,-1,18,8,2,3
2,1,0,-3,1,-2,-29,0,3
12,4,3,11,3,0,42,0,3
5,2,0,-5,0,7,-10,5,3
3,-3,4,4,-2,-7,-75,-2,3
5,-3,-2,18,-2,-3,18,-9,3
9,-3,0,-13,-4,0,32,8,3
2,6,1,6,1,2,-99,1,3
1,0,1,11,-5,-8,12,0,3
-7,-2,-4,-13,-2,-3,-9,-1,3
-10,-4,-1,29,-3,-9,2,2,3
3,-1,1,-30,-1,-6,17,2,3
0,1,-4,-9,2,12,73,14,3
-1,3,-1,0,-5,-10,-90,-10,3
1,4,7,10,1,-3,49,-1,3
0,-2,-1,3,2,10,32,12,3
-6,1,-1,9,-6,-8,-43,-16,3
-2,-4,1,-9,3,5,37,10,3
-3,-1,-1,7,-2,-6,-15,-3,3
-12,0,1,-21,-2,-4,-32,-5,3
10,-1,-2,-18,0,12,117,7,3
-1,2,-1,6,4,-5,-107,-7,3
-22,-4,-1,-6,1,-2,82,4,3
14,2,-2,15,2,3,1,9,3
3,6,1,3,-1,1,18,10,3
-6,-3,1,-15,-3,-1,6,2,3
-6,-5,-2,5,-3,-1,-8,0,3
-6,-6,-5,8,-4,-5,-24,-8,3
3,2,3,-5,-1,-6,-22,-2,3
5,2,1,0,-2,2,62,3,3
10,7,5,2,5,-3,-13,-1,3
-4,1,-2,4,1,17,-77,-4,3
1,3,0,-2,3,-8,-12,2,3
-14,-1,0,11,-3,1,40,3,3
2,1,2,-23,1,1,-20,-8,3
0,1,-2,-1,-5,-7,-5,-3,3
-7,-2,-1,3,-2,0,-16,-5,3
0,-3,-3,-9,8,2,16,3,3
11,7,0,5,0,-6,-52,-1,3
-5,-4,0,8,1,11,64,-10,3
-6,-7,-6,-6,0,-4,-32,-4,3
5,0,-1,7,-5,-10,8,3,3
-5,-2,-1,0,5,17,-10,-10,3
11,3,-2,3,-1,-6,35,0,3
16,1,2,6,2,0,104,9,3
-11,-1,-1,-5,-1,1,29,-9,3
-9,-2,-2,-2,0,-1,-27,0,3
1,0,2,-3,3,-5,-9,-3,3
-7,-5,0,7,-5,-3,3,-4,3
5,0,-4,-6,-4,0,-36,1,3
1,-2,-4,-9,-4,3,18,6,3
-17,-8,-3,-13,-4,-10,-37,-4,3
-2,-3,-2,4,0,-8,-18,-2,3
5,0,3,4,2,9,10,-1,3
2,3,3,-3,-7,-2,-27,-7,3
-1,0,1,8,-2,1,60,7,3
-7,-7,-8,-5,-6,-9,-69,-4,3
1,-3,1,-6,2,5,39,5,3
6,2,0,-1,-1,-8,11,-7,3
-1,0,-3,7,-4,8,-35,4,3
0,5,2,1,0,3,-33,-2,3
1,-3,1,-6,-2,-4,95,7,3
6,1,-3,7,0,-2,-21,-4,3
3,0,2,-1,8,4,-12,-2,3
-22,-3,-2,-6,2,3,9,-5,3
11,3,0,3,1,-1,-46,-9,3
17,-3,-3,-1,-2,-3,22,14,3
-12,-5,-2,-1,-5,-3,-8,-1,3
6,1,-1,3,-2,7,57,5,3
1,1,-1,-5,-4,-1,-54,-1,3
-10,-4,-5,-2,-3,-12,20,0,3
17,8,4,7,2,3,4,-1,3
-1,-4,6,0,-1,-3,-2,-2,3
-7,-7,-4,2,1,3,-13,1,3
-10,-12,-10,-4,5,8,59,1,3
-3,4,-2,4,-7,-16,-42,4,3
3,11,5,12,2,6,-32,-18,3
5,7,5,1,-4,-1,23,0,3
1,-1,-2,3,1,2,10,4,3
-14,-6,-9,-17,3,7,-6,-2,3
-1,-3,-2,0,-4,-15,-20,2,3
-3,-1,0,10,1,4,-25,2,3
0,2,1,3,0,4,17,0,3
-14,-1,6,43,3,-6,-2,-2,3
3,-7,-11,-51,-7,0,-50,2,3
-4,-2,-1,-1,-2,6,60,2,3
-4,2,2,-4,-2,-9,-92,5,3
1,-3,-2,-3,-4,5,51,4,3
0,-1,1,10,1,-1,15,2,3
2,-3,-1,-3,0,-5,-8,-4,3
-3,0,0,-3,1,4,27,0,3
7,1,2,1,0,2,11,1,3
-4,-1,-2,6,-4,-4,-31,-5,3
-4,0,-4,-18,-5,-11,-34,2,3
0,3,6,13,-10,-7,-8,-12,3
-7,-1,-2,-6,-2,4,-13,-3,3
3,0,2,-2,-5,8,45,9,3
-3,-3,0,10,3,-14,26,3,3
-4,-5,-6,0,-2,0,-32,-8,3
-3,-3,-4,-13,-9,-11,16,5,3
-6,4,3,-2,5,7,-3,-1,3
0,3,5,3,3,12,51,-2,3
0,3,-3,1,-1,-1,-9,0,3
-1,2,1,-7,-2,-8,2,4,3
4,2,2,13,1,-3,-37,-5,3
-17,-4,-3,2,-1,-7,-43,-1,3
-11,1,2,-17,4,6,17,-1,3
4,-1,-3,-27,-2,9,27,9,3
5,1,-2,6,-1,-9,-41,-5,3
0,0,0,6,-2,-1,-8,-3,3
-1,-3,-4,-4,2,4,4,-6,3
0,-4,-1,16,5,0,3,7,3
13,-1,-3,-12,-3,-4,25,1,3
14,1,-3,-4,-1,-1,-38,-15,3
1,-2,-2,2,-2,1,-11,11,3
16,3,0,-6,3,-1,-4,-4,3
2,1,-1,-6,-2,-2,-17,8,3
-5,1,-5,1,0,8,18,-1,3
0,0,4,18,-5,-9,3,-8,3
5,-2,-2,14,1,-2,-20,-2,3
-4,-6,-4,-11,-5,-2,-20,-7,3
12,3,3,-3,-2,3,30,6,3
-4,0,2,20,-2,-7,10,-5,3
8,2,5,6,1,3,0,4,3
3,2,-9,-13,-1,4,15,4,3
-8,-6,-7,-11,-8,-13,38,-2,3
10,0,-4,-6,1,0,-31,4,3
0,-1,3,13,1,-2,-31,-15,3
-4,1,5,3,3,6,41,4,3
2,-3,-1,2,1,2,-35,5,3
-1,1,2,-9,-4,-1,-14,-6,3
-15,-4,-3,-9,-2,-5,-47,-5,3
-6,-7,2,-2,7,0,30,1,3
-8,-3,-1,4,-3,-2,-10,5,3
7,3,3,3,-2,-1,22,2,3
3,4,-1,2,1,4,-1,-5,3
-1,2,0,-24,-4,0,8,7,3
4,0,4,10,-1,1,37,-4,3
-10,1,-4,-24,5,3,-1,1,3
-7,1,-5,-9,-7,-5,-48,-25,3
-9,-6,2,22,4,3,74,3,3
-2,0,1,-1,2,-3,-54,-3,3
6,-4,-3,-6,-2,-4,13,4,3
-6,-1,-1,18,1,1,23,5,3
6,4,-2,-16,0,-3,-30,-15,3
1,-2,-3,-5,-5,0,-18,-1,3
2,1,-4,-6,3,8,3,0,3
0,-5,0,-11,0,-4,5,-3,3
14,1,2,21,2,4,10,5,3
-3,3,0,-7,2,1,-28,0,3
13,3,4,8,-2,4,7,6,3
2,3,0,-4,-4,-14,-20,-2,3
-12,-6,0,15,3,10,31,4,3
-10,-3,-8,-36,-2,-8,-40,-10,3
5,0,0,-1,-1,3,20,4,3
2,-1,-1,5,-2,-7,-26,2,3
-4,-2,1,4,1,2,-8,0,3
2,-2,-2,7,4,1,49,7,3
-11,0,1,-2,-2,-8,-52,-8,3
9,0,3,-9,1,4,26,11,3
-3,1,-2,6,-2,-9,-22,-12,3
0,-2,1,1,-2,6,29,0,3
-5,1,0,0,-4,1,9,-1,3
-4,0,-1,9,2,5,28,7,3
8,7,-2,-17,1,-7,-75,2,3
-5,-7,0,-3,0,3,28,5,3
-12,-12,-7,0,-6,0,106,-3,3
-1,-3,-1,0,-3,5,29,-4,3
11,2,2,1,-1,-1,2,5,3
26,5,1,3,0,-1,-25,2,3
-5,1,1,3,2,-5,-41,-5,3
10,-1,-6,-1,-2,-1,18,6,3
-17,-7,-3,-1,-3,-3,31,-6,3
-8,-4,-3,9,-3,-4,8,3,3
14,2,-2,1,0,5,12,-3,3
6,4,0,0,0,3,9,5,3
11,3,1,10,3,3,-5,-6,3
-8,0,0,38,0,-7,-25,-10,3
3,2,0,-31,-2,3,-6,13,3
6,6,-1,-8,-1,-1,1,5,3
-12,-5,-2,-7,-10,-9,22,-10,3
-19,-11,-8,-1,-3,-4,-26,-6,3
15,-1,0,14,2,1,3,-8,3
-10,-3,-2,1,1,4,11,-6,3
3,1,-3,-1,-1,-5,-8,3,3
10,11,7,-3,5,5,16,0,3
2,3,0,13,-1,-9,-2,14,3
-8,-7,-7,-44,-8,-5,-30,-23,3
-4,-4,-3,3,-3,-5,15,3,3
-1,-1,2,-2,4,10,0,1,3
-10,-3,-3,12,-5,-13,-111,-5,3
4,0,4,6,2,8,53,5,3
-2,-2,1,-3,-2,-2,1,4,3
3,4,1,-4,7,0,13,-4,3
-11,3,1,-13,0,5,29,15,3
-6,3,0,6,4,-17,-46,-13,3
-13,-5,-4,-13,-7,1,-29,7,3
-10,-3,-2,-4,-6,-3,-7,6,3
-12,-9,-2,0,0,9,34,-3,3
3,0,-1,3,3,-1,-11,2,3
-1,5,1,-3,-2,-1,10,2,3
13,7,1,8,-1,4,9,-2,3
-5,-1,-2,-7,6,0,3,-5,3
-12,-5,3,-1,4,12,20,5,3
5,1,2,10,2,-8,67,1,3
-26,-5,-4,-15,-15,-18,-102,-20,3
1,-4,-4,-11,-1,1,24,1,3
17,-1,2,16,-4,2,3,0,3
4,1,0,8,2,7,2,3,3
1,0,-1,-7,1,0,8,4,3
-1,0,3,6,2,-11,-10,-5,3
4,3,1,-8,-3,7,20,4,3
4,2,2,-1,3,5,62,-2,3
3,0,0,-5,-7,-13,-71,0,3
-8,-9,-2,1,-2,9,-12,-3,3
0,-1,-4,-1,-1,2,27,6,3
10,0,-4,-5,-2,0,-39,-7,3
8,5,3,-3,8,9,38,2,3
-2,2,2,7,2,-2,3,6,3
-1,-4,-3,-4,0,-4,-36,-6,3
-5,-4,-7,-3,-2,6,-1,-12,3
6,-4,-2,-3,-3,-2,-11,10,3
5,1,2,4,-7,-1,-12,0,3
-2,0,2,6,3,-3,42,3,3
-5,-2,-2,-1,0,-3,-53,-4,3
2,-2,-3,-5,2,13,48,-4,3
3,4,-2,0,3,1,8,-3,3
-21,-1,2,18,-3,-4,-11,-10,3
1,-4,-3,-19,0,0,25,-1,3
-9,-6,-6,-6,0,4,30,-2,3
-1,-1,-2,2,0,-1,56,0,3
1,0,-1,1,-2,1,-39,-2,3
-4,0,2,18,5,5,2,-3,3
8,6,1,-8,-8,-9,32,10,3
20,1,-1,-2,2,4,-6,-7,3
7,2,0,-5,-5,-11,-45,-1,3
-7,-6,0,10,-3,2,31,6,3
-5,-5,-5,-7,1,1,5,2,3
2,-2,1,25,-3,-8,-12,-7,3
4,-2,-1,-18,-5,0,-7,3,3
2,5,2,7,3,3,-3,8,3
-4,2,-1,-3,-4,-9,61,-1,3
-1,1,-2,-7,-1,2,-32,-4,3
-3,-3,0,9,2,4,11,-4,3
-9,0,-1,-3,-5,-4,3,3,3
11,-3,1,2,-1,8,19,4,3
11,1,0,3,-3,-10,-28,-5,3
-6,-2,0,20,1,-1,26,-2,3
-3,0,-1,-22,-4,-8,-46,-3,3
2,1,-2,5,6,-1,-38,-2,3
-1,5,1,-5,-5,-2,-23,3,3
-1,-4,-3,-2,0,8,20,1,3
5,0,2,10,-4,-4,-16,-4,3
-5,-2,0,2,-2,-6,9,-1,3
-7,2,-2,-8,0,3,10,8,3
7,1,-4,-11,-5,-7,10,2,3
-13,-9,-5,-3,-5,5,-16,-6,3
-2,-3,0,14,3,-3,-21,-4,3
-9,-4,-4,18,-3,-2,32,2,3
6,1,-2,-39,-3,-1,11,7,3
7,3,1,5,-1,-1,23,-12,3
-1,4,4,14,1,2,-25,-3,3
-14,-3,-1,-7,-4,-1,-26,-12,3
20,1,-3,0,1,4,32,0,3
1,2,-2,2,4,-10,-11,-4,3
4,2,5,-4,-8,1,27,2,3
4,-1,1,-4,3,-3,-28,0,3
2,0,0,-1,-2,-2,-21,3,3
11,3,0,-9,2,2,-22,3,3
4,0,1,6,-1,-5,-20,0,3
-5,-2,-1,1,8,8,26,4,3
-14,-7,-5,-10,-8,-3,-13,3,3
-11,-5,-6,27,-2,0,36,-1,3
-5,0,6,29,10,-10,-70,-4,3
6,0,-7,-41,-11,-6,20,5,3
2,4,2,19,-1,-19,-82,-6,3
6,2,5,-5,4,16,61,10,3
-3,-2,-8,-3,-11,12,40,-12,3
-1,-3,1,25,-2,13,-36,-3,3
-12,-2,3,-7,6,-31,-25,-2,3
-6,-5,1,-2,-9,-8,-59,-15,3
9,4,4,-4,3,4,9,11,3
-18,0,-1,1,0,-6,42,4,3
-5,-2,-6,-2,1,22,43,-6,3
0,-1,-3,-17,-2,-12,-87,-3,3
1,-2,-2,-13,0,12,74,12,3
8,5,0,-4,-1,-13,-70,-5,3
1,0,4,13,-2,5,-3,-3,3
2,3,-1,-3,0,8,27,8,3
-16,-9,1,-15,1,-16,-57,-17,3
-12,-2,4,12,2,4,8,11,3
6,-6,-3,-4,-2,7,29,8,3
-15,-5,6,9,1,-6,-37,-7,3
-19,-8,-11,-54,-14,7,3,-3,3
5,-2,-11,-34,-6,-8,-56,1,3
12,1,1,-3,-1,4,37,5,3
-11,3,1,-3,-4,-5,-4,-6,3
11,5,7,25,5,-4,-22,-5,3
-10,-1,4,7,5,3,34,-4,3
-5,-1,-3,5,-2,0,20,-3,3
2,1,-1,1,1,-3,-6,12,3
5,2,-1,6,1,0,22,3,3
6,1,0,-3,-3,1,89,1,3
-4,-5,-1,8,-1,10,26,10,3
-16,-4,-4,-2,-4,-16,-16,-33,3
9,1,-5,-5,3,14,43,14,3
13,3,5,-2,1,-4,-66,4,3
-1,1,2,-5,-1,-3,-20,3,3
4,2,-3,-7,1,9,12,3,3
15,3,1,6,-5,-7,-27,0,3
-7,-7,5,1,8,-2,18,-6,3
-2,4,1,8,6,17,-8,9,3
7,-2,-2,-3,3,-21,-17,-5,3
16,2,3,16,-2,8,-32,4,3
2,-3,-5,-1,-8,3,70,9,3
-8,-1,-2,-6,-2,-4,-79,-9,3
17,2,0,-4,-2,6,55,12,3
-7,0,0,0,-1,-6,3,-14,3
27,-1,-3,5,-4,1,-23,12,3
14,1,0,10,2,5,53,0,3
-1,1,-2,1,-1,-5,-20,7,3
0,0,0,2,-3,2,-4,0,3
-1,-3,0,5,1,0,-4,-4,3
-10,-1,-2,1,-3,-7,17,-10,3
14,-1,1,0,3,6,-12,10,3
-8,-6,-1,-9,1,-4,26,4,3
-6,2,0,20,-2,1,15,-7,3
-3,-2,-2,-1,-3,-9,10,4,3
-6,-4,-1,-14,-1,0,0,-10,3
-10,-2,-4,0,-3,-3,-8,-7,3
-5,0,2,3,-1,-4,-7,-5,3
1,0,7,2,-2,7,24,0,3
2,-2,-5,2,-3,0,-4,10,3
-19,-5,-10,-3,-1,-3,11,-2,3
2,-2,-2,-6,3,-11,-43,-15,3
-9,-3,-3,9,-3,-3,23,-4,3
-3,-2,3,-25,-2,15,7,-3,3
-17,-6,-1,-1,2,-3,50,4,3
-15,-2,1,22,1,3,8,-5,3
6,0,-9,-67,-3,-11,-26,3,3
-5,-3,-5,6,-3,24,96,-3,3
19,5,5,5,2,-10,-70,-5,3
4,1,1,-1,-1,1,-18,2,3
-9,0,1,5,2,-5,-18,-7,3
-1,-2,0,10,7,-12,-16,6,3
0,0,-2,-15,-2,5,17,1,3
-6,-1,1,14,-3,-7,59,-1,3
-5,-1,0,4,-3,-3,-26,-4,3
1,3,-1,4,-3,2,5,0,3
7,2,-2,3,1,8,-12,2,3
-3,1,-1,-9,-1,-7,-4,-2,3
1,-4,-3,2,3,6,26,-4,3
-11,-5,-5,4,-6,-13,-43,-4,3
1,2,2,2,2,5,45,13,3
5,0,-2,-11,-4,-6,-55,-14,3
6,3,0,7,-1,3,13,4,3
5,2,-1,4,-2,2,10,1,3
-20,-7,2,11,1,-9,-20,-7,3
-1,-4,-9,-34,-4,6,39,8,3
-11,-2,0,-3,-2,-6,-68,0,3
7,2,2,14,-3,2,-29,3,3
1,3,2,-14,-4,-12,-11,3,3
8,1,3,-2,8,13,65,5,3
1,-2,-3,1,-4,-25,-86,-11,3
-2,0,0,-4,0,11,77,15,3
-7,-1,-2,1,-1,-3,-8,-19,3
-3,-2,-2,7,-5,-1,-18,3,3
2,-4,-2,-14,4,6,1,4,3
-1,0,1,-1,2,-2,-3,4,3
14,3,1,8,3,8,8,1,3
7,3,0,-13,-1,-2,-7,4,3
-3,-2,-2,11,-3,2,15,-2,3
6,-2,-1,-6,0,4,27,-4,3
-9,-1,0,2,0,-15,-35,0,3
-7,2,1,7,-2,7,7,-4,3
0,1,5,1,0,0,-58,-2,3
16,-5,-2,-3,5,10,95,3,3
5,-4,-6,-9,-8,-1,33,7,3
-3,-2,0,3,1,1,-41,-1,3
1,0,-3,6,1,-1,18,-1,3
4,3,-1,-1,0,-3,-22,-2,3
-5,0,3,9,2,4,-12,3,3
-5,-3,-3,-29,-2,4,25,10,3
-26,-5,-7,-9,0,11,66,9,3
-2,1,-2,8,-7,-24,-91,-16,3
4,-1,-2,-3,3,7,14,3,3
5,-5,-3,5,-2,2,-12,0,3
-7,-1,3,1,-3,-5,-5,-6,3
7,3,1,-3,-1,-4,13,9,3
-25,0,-2,-15,-6,-11,-23,-30,3
6,10,0,8,-1,-3,-10,8,3
5,0,3,5,-4,-2,-33,-20,3
-3,-8,-2,-5,2,3,62,7,3
-10,-5,-5,9,0,1,42,7,3
14,-2,-2,-4,-2,6,-22,-1,3
10,5,2,22,-1,-15,26,4,3
-7,2,-1,-31,-1,2,-36,0,3
13,1,0,-11,1,9,-10,-6,3
1,2,3,4,0,-5,-25,5,3
3,1,1,11,1,2,5,-1,3
-7,-3,-3,1,-5,-5,-19,-2,3
2,-4,-1,-5,1,4,9,11,3
-12,-3,-1,7,2,0,15,2,3
3,-1,-6,-10,-3,2,-13,-5,3
-7,-3,-3,-3,3,-7,-23,-9,3
8,3,-1,-3,-4,0,48,8,3
-4,2,2,10,1,5,-33,-3,3
-4,-5,-3,-3,1,-1,2,-1,3
-4,-4,-4,-1,-2,0,22,2,3
0,-1,-1,-1,-3,4,-7,-2,3
2,-4,-2,-1,-2,9,37,-3,3
18,3,2,24,0,-9,-5,4,3
14,1,-1,-25,-1,-4,-16,2,3
12,4,0,5,1,-6,-22,-4,3
4,3,1,-2,0,-2,-3,-2,3
-7,-3,2,-10,-2,1,13,-7,3
-14,-4,2,30,-3,-6,-78,-5,3
2,-3,-1,-6,-5,-1,-3,4,3
-11,-7,-5,-6,-3,-4,30,-2,3
-4,1,-1,-2,-5,-1,39,4,3
13,7,5,7,5,8,-13,4,3
-5,-1,-2,-7,-2,-7,-2,-11,3
-1,1,0,-6,-2,-7,15,-2,3
4,4,1,2,0,2,20,4,3
-11,-5,0,4,-8,2,23,0,3
-7,-5,-2,5,0,-14,-57,-6,3
-12,-8,-4,0,4,8,28,-3,3
-1,-2,-1,-6,0,-3,-4,7,3
7,4,-2,2,0,-4,1,-7,3
13,5,2,8,-2,9,2,2,3
20,-1,1,6,-6,-7,-18,-3,3
-1,-1,-2,-30,-1,-17,-1,0,3
0,0,1,6,2,-7,-74,-1,3
3,0,4,6,1,13,36,4,3
-10,-5,-5,-3,-2,-2,-30,-3,3
14,1,-1,6,0,14,-17,-5,3
15,-1,-2,1,4,-6,42,0,3
8,-1,2,-7,-2,-12,10,23,3
-5,4,-3,5,-6,-12,-63,-12,3
4,2,-1,10,2,6,-7,-1,3
-21,-6,-1,-13,0,1,29,7,3
-8,-4,-2,1,1,2,8,3,3
-1,-2,1,-1,-2,-7,-3,-5,3
-12,1,0,8,1,0,15,6,3
-6,1,-4,-24,-1,9,44,-4,3
0,2,-2,1,4,1,-32,-4,3
5,2,-1,-1,0,-6,7,5,3
5,1,1,-3,0,4,-1,1,3
-7,-1,-2,5,-2,1,11,-5,3
-6,-3,0,3,-2,7,-8,-5,3
-5,-1,0,7,3,-6,15,-4,3
8,-3,-3,-8,-2,1,-12,4,3
5,1,0,4,-6,-6,-7,-6,3
-2,-2,-2,-5,6,5,-7,-4,3
-6,1,1,-4,-2,-11,6,3,3
-1,-1,0,13,3,7,33,4,3
-8,-2,-7,-3,-8,-10,-41,-16,3
4,1,-1,11,-1,11,15,1,3
0,3,-1,-2,0,-5,39,0,3
-4,-1,4,-3,2,6,-29,4,3
-2,1,3,3,5,2,-6,-4,3
24,0,-3,-7,1,14,59,13,3
0,2,-1,-4,-2,-19,-86,-1,3
-4,-2,-1,-6,-4,7,25,-2,3
-12,-3,1,6,0,8,38,6,3
-15,-3,-2,-8,-4,-15,-41,-7,3
9,2,-11,-10,1,13,103,12,3
-4,-5,10,-24,-7,-16,-52,-13,3
-16,-3,-5,4,-3,3,-18,1,3
6,0,0,1,-5,-7,11,1,3
11,14,7,28,5,9,7,1,3
-9,-26,-9,-27,-3,-4,-6,-7,3
-1,-4,-1,2,1,1,40,4,3
1,2,3,3,1,4,-28,-4,3
-4,-4,-1,-2,-5,0,-33,1,3
2,6,-2,12,0,-4,24,0,3
14,6,5,7,10,3,-37,1,3
0,-2,-5,-8,-2,-8,-20,-8,3
-14,-4,0,-6,-4,17,26,-2,3
-4,1,-5,10,-2,-16,-34,-7,3
13,-4,-2,-3,1,-2,-4,5,3
7,6,1,-1,-7,-1,26,-2,3
-9,-5,2,0,6,2,-27,-2,3
-2,2,-4,-4,1,-2,25,-8,3
-6,-4,-3,-3,-4,-1,3,0,3
-2,0,0,1,-3,-14,-34,-2,3
5,-1,3,-15,-2,6,54,4,3
0,3,2,4,-2,-3,-30,-2,3
20,5,2,9,2,6,-7,6,3
-7,0,2,15,3,2,69,6,3
0,-6,0,-9,-4,-4,-62,-10,3
5,7,-4,2,2,10,-2,12,3
-3,2,1,-4,-4,-8,-5,-16,3
0,-2,-2,0,-1,4,16,7,3
-11,1,1,11,3,5,-15,-13,3
10,3,2,3,-4,-13,33,5,3
8,-1,-1,-3,0,5,-14,2,3
9,1,-2,-2,2,-8,1,3,3
-21,-7,-1,0,-5,1,-11,1,3
-11,-3,-4,-7,-2,7,29,2,3
2,2,1,16,-3,-14,30,8,3
-4,-1,-1,-19,-3,-2,-54,-17,3
12,1,-3,-8,-4,2,10,6,3
-3,-2,1,-3,2,0,-14,-2,3
-7,-1,5,14,4,6,20,2,3
-11,-3,-6,-14,1,-3,-24,-4,3
6,1,-1,-10,-1,-1,30,-1,3
4,-2,-6,2,2,3,19,2,3
-13,-2,-4,-9,-3,-3,55,-10,3
-7,-2,1,7,-7,-11,9,-7,3
15,0,-2,-1,0,-1,30,9,3
2,0,1,3,-2,7,-6,0,3
0,-2,0,-8,4,2,-10,3,3
-4,1,1,5,1,4,14,1,3
9,2,-2,-1,-1,-10,28,9,3
4,3,0,0,-5,-5,-61,-12,3
1,-4,0,4,-2,-10,2,4,3
-4,-3,0,10,-2,5,-32,-4,3
3,-1,-1,-18,-3,-6,-43,1,3
-12,-3,-1,-3,-1,4,22,8,3
0,2,0,-12,2,8,1,-7,3
7,1,1,11,5,-4,-9,5,3
-1,1,0,13,-3,2,9,2,3
-6,-5,-4,2,0,-4,-25,-8,3
-4,-3,-3,-4,-5,-2,-56,-2,3
-1,3,3,-16,-2,4,29,3,3
-3,1,1,13,2,-5,-14,-7,3
0,0,-6,-3,-2,-3,10,2,3
-7,0,-2,0,-2,3,38,-4,3
-2,-2,1,0,-1,-7,-54,-2,3
1,-2,2,2,1,11,75,-2,3
-4,-2,-2,0,-3,-1,-57,-2,3
16,4,-1,-7,-5,-11,0,-4,3
1,-2,-4,-9,3,31,33,9,3
-6,1,-1,0,-1,-31,-13,3,3
3,1,2,18,1,4,34,2,3
-10,-1,-3,-12,-6,-4,-56,-6,3
2,-1,-1,1,-1,13,-2,5,3
-6,-4,-4,-1,1,-7,3,-2,3
-2,0,0,1,1,-4,0,-2,3
-7,-1,2,4,0,17,12,-3,3
0,0,0,8,2,-13,-48,-1,3
-2,-2,0,6,1,8,36,-4,3
