-2,-1,1,4,2,-3,-2,0,7
0,-1,0,-4,1,-1,0,4,7
-2,-1,0,7,0,0,-1,-3,7
0,-2,-1,0,-1,-2,-2,-2,7
-1,1,-2,-6,-1,0,-5,-3,7
1,-2,-1,3,-1,-1,4,3,7
-1,1,0,2,3,3,8,-1,7
0,0,-2,-6,-2,-1,-2,0,7
-1,-2,-3,0,-2,-2,-5,-3,7
-2,-2,-3,2,0,0,2,-2,7
1,1,0,-2,-2,1,-1,2,7
-1,2,2,-4,0,1,-5,-5,7
1,0,-2,-3,0,0,-1,2,7
2,-3,3,5,2,1,4,1,7
0,2,-1,-3,-1,-2,-2,1,7
-1,-1,-2,4,-2,-2,0,-4,7
0,-3,-1,-1,0,-1,-2,1,7
0,1,2,-19,-2,0,2,-2,7
-1,0,-2,23,-1,0,-1,1,7
-2,-4,-4,-40,-5,0,0,2,7
-2,7,-2,0,-4,2,0,-3,7
-1,1,0,4,3,3,2,2,7
1,-2,2,4,0,-2,-5,-1,7
-1,1,-1,6,-2,0,7,1,7
-2,-2,0,-8,-3,-4,4,-1,7
-3,-1,-1,2,-2,-3,-12,-8,7
-1,-1,0,-5,1,0,1,1,7
0,-1,1,8,4,0,-1,0,7
1,0,1,6,-1,-1,6,-5,7
0,3,0,-3,-4,-2,3,0,7
-1,-10,-1,-5,-1,0,-1,3,7
-3,-4,-3,2,0,0,-1,-4,7
-1,-5,-1,-9,0,-1,-5,5,7
-2,1,-3,17,-3,-1,2,4,7
2,4,0,-12,1,-1,3,2,7
0,3,-1,3,-1,0,-1,-2,7
2,1,3,3,0,0,-3,-4,7
3,0,-1,3,-5,-1,0,4,7
-3,-3,-3,-5,-4,-4,3,-2,7
0,-2,2,6,0,-1,1,3,7
-3,-1,-2,-2,0,0,9,-5,7
-2,-2,0,-7,0,-2,-4,-6,7
2,5,1,5,2,1,0,1,7
3,3,0,-3,1,-1,-6,-1,7
0,-2,-1,-2,0,0,-1,3,7
0,3,0,-1,0,-1,5,4,7
-7,-15,-4,-2,-2,-1,-4,3,7
-1,2,-2,3,-2,0,1,1,7
-1,-3,0,-1,-2,0,-4,0,7
-2,-1,0,2,1,1,3,-1,7
2,11,1,4,3,0,-1,-1,7
8,11,8,-1,-1,-2,-2,4,7
4,0,-1,1,1,0,-6,-2,7
15,12,4,1,1,0,0,-5,7
-10,10,3,3,1,-2,1,-2,7
10,3,6,1,-2,-1,2,1,7
4,11,-2,1,1,0,-4,-3,7
71,52,85,22,10,3,-3,-4,7
-91,-30,-4,-11,-6,-9,-9,-14,7
46,-57,-9,-1,-5,-2,2,10,7
-24,-65,45,-19,-23,-11,-6,-1,7
-67,-44,-126,-39,-8,16,13,17,7
122,31,127,24,15,18,33,-9,7
-6,21,-20,21,26,-3,-8,-16,7
-40,-80,-93,-98,-45,-22,-34,33,7
-99,-73,87,-26,-9,23,34,-23,7
63,71,45,37,10,-14,-16,-20,7
109,87,121,55,29,57,7,-2,7
45,93,102,66,27,-23,-1,-17,7
18,27,-15,1,-6,-27,-47,-9,7
-11,-16,-36,-15,3,26,41,-24,7
91,48,31,6,0,-15,10,-5,7
-71,55,58,11,12,17,-7,-31,7
-19,-76,-103,-34,-14,-6,-2,42,7
-82,-79,-43,-28,-21,-15,-9,64,7
-88,-6,1,-10,-8,-8,-11,108,7
94,41,27,30,21,27,32,103,7
10,25,62,21,1,-5,26,-86,7
-21,-56,-102,-42,-22,-15,-30,-92,7
-42,-48,-28,-18,-5,-8,-8,-89,7
28,23,1,19,12,15,26,-17,7
127,86,66,43,21,12,-2,12,7
116,77,29,25,15,6,3,24,7
-128,-111,-60,-51,-29,-13,2,-5,7
10,-53,-55,-18,-14,14,38,-4,7
-52,-53,-64,-19,-25,-64,-48,15,7
-61,-16,8,5,-2,-15,-48,9,7
119,91,51,25,13,5,-8,9,7
88,69,65,14,16,43,34,-22,7
-86,-95,-106,-63,-29,14,86,10,7
-17,-25,-7,-11,-25,-71,-96,23,7
40,6,25,20,1,-29,-54,-8,7
58,26,2,13,9,2,-11,-15,7
66,66,69,36,26,26,19,6,7
15,36,17,3,10,35,49,13,7
-69,-47,-61,-56,-27,-11,3,-7,7
-71,-36,-33,-8,-14,-25,-35,-11,7
16,30,14,11,5,0,-3,14,7
-6,8,19,18,10,11,16,4,7
4,15,50,30,14,8,-5,-7,7
-8,35,-7,0,-7,-16,2,-1,7
-58,-68,-49,-74,-33,-14,-27,9,7
-45,-22,8,-29,-9,-2,12,5,7
-44,-24,-30,-3,-10,2,15,-1,7
13,2,39,22,13,3,-5,-2,7
107,59,54,43,19,10,-7,-7,7
-41,11,-9,-10,3,30,53,13,7
-63,-33,-27,-26,-21,-58,-54,7,7
-18,-22,-15,1,-1,-2,-18,-4,7
19,30,16,22,18,17,-33,4,7
99,32,44,9,8,20,23,-3,7
-18,4,-37,-1,3,15,37,-17,7
23,-60,-44,-18,-11,-12,-13,14,7
-41,64,77,9,1,-24,-10,6,7
67,-39,2,4,-5,-1,-22,1,7
-76,10,-76,-12,-2,2,9,6,7
1,-55,-21,-10,-4,-7,-11,-13,7
-17,-6,15,22,14,23,20,2,7
45,-3,22,-8,-8,-10,-19,-5,7
121,55,64,24,13,9,2,0,7
7,1,-35,-17,-6,-1,16,-6,7
-6,-23,-13,-12,-5,-1,0,-1,7
-19,17,-13,7,1,-12,-2,-2,7
44,5,40,21,10,16,27,-3,7
-47,24,-3,-7,7,18,-18,-3,7
8,5,-23,-12,-25,-52,-23,-1,7
-14,-2,24,5,13,46,62,-2,7
-10,12,-93,-19,-17,-50,-40,0,7
5,-14,53,18,4,3,-11,-2,7
5,14,48,22,14,15,11,1,7
15,5,-48,-7,-1,6,7,-3,7
-76,-24,35,-8,-5,27,49,1,7
12,6,-17,-13,-7,-16,4,0,7
3,-19,-22,-9,-8,-2,-13,-4,7
1,21,27,28,13,1,6,7,7
40,6,33,0,1,11,-4,-3,7
24,19,-9,1,-4,-16,-20,-2,7
-13,-9,-10,-6,-2,5,9,0,7
-14,-4,-10,7,-4,-25,-22,-1,7
12,-8,27,0,-4,-23,-46,-1,7
-39,4,-27,-19,-14,-17,-19,0,7
3,9,-26,-14,-8,-22,-18,-1,7
-41,-25,-39,-2,-4,5,-28,-4,7
-10,-15,28,5,3,-5,29,-2,7
-43,-7,12,21,16,31,27,-4,7
15,-3,-91,-6,3,5,5,3,7
70,19,3,-14,-8,-17,5,-1,7
8,4,29,0,5,37,28,1,7
16,-14,38,6,-4,-25,-6,-5,7
20,39,17,14,11,18,9,2,7
6,-40,-9,-16,-6,10,4,3,7
-69,-11,-11,-1,-2,4,17,1,7
-18,27,27,16,18,72,83,-1,7
-5,-9,30,-7,-11,-65,-67,0,7
-3,20,-34,13,9,11,-9,-1,7
13,-19,-10,-18,-17,-19,-73,-1,7
-34,-39,-73,-23,-10,-10,-4,0,7
11,8,52,25,20,34,58,-2,7
-18,11,20,0,-1,0,-6,2,7
31,21,12,11,7,5,19,3,7
-24,-5,-29,-25,-6,-1,8,1,7
-27,-6,14,9,2,14,-6,-3,7
-8,-12,-35,-27,-10,-25,-8,-1,7
31,9,-3,9,11,15,5,1,7
85,30,59,19,-8,-34,-37,1,7
-42,-15,31,-5,-3,15,16,-3,7
21,-16,-96,-18,-6,-10,3,-1,7
-45,-44,4,3,-2,6,13,-4,7
60,25,7,5,8,-6,-11,-5,7
39,45,50,21,15,18,-2,2,7
12,36,-15,-1,-5,-6,38,-2,7
-62,-33,-28,-16,-7,-25,-39,0,7
-50,-14,10,0,-1,26,-9,3,7
40,-5,-4,7,3,-14,-15,-1,7
17,30,59,12,5,8,-1,-1,7
27,-15,-29,-17,-10,-18,20,0,7
-54,-26,-12,-9,-12,-1,20,-5,7
-15,-18,-23,-4,-2,-7,4,-1,7
10,4,31,10,1,-16,-81,0,7
-6,8,-8,-14,3,38,35,-3,7
-5,2,3,4,4,-15,7,-3,7
32,3,9,-1,-4,13,14,2,7
-18,29,102,47,15,-5,18,0,7
5,7,-80,-47,-18,-14,1,-3,7
-14,-51,-9,-19,-15,1,-22,3,7
-5,-18,-39,10,13,23,27,-4,7
-28,-22,38,13,1,-32,-33,-6,7
127,127,127,52,29,45,46,0,7
-63,-62,-114,-43,-17,-9,17,0,7
-72,-13,16,-8,-11,-29,-39,0,7
-84,-63,-32,-16,-8,27,27,4,7
36,7,9,15,15,20,5,-4,7
59,34,32,16,12,-7,-4,1,7
20,15,16,7,0,13,26,1,7
-35,-9,-42,-31,-12,-27,6,-1,7
-1,-27,-17,-7,-9,-20,-59,3,7
-22,20,1,6,-3,-3,-17,-1,7
-11,4,43,22,15,16,12,1,7
18,8,-21,-14,-4,17,28,-2,7
25,1,2,11,7,15,47,1,7
-46,-25,-75,-20,-20,-57,-76,0,7
27,-15,36,25,7,11,-15,0,7
25,26,11,36,18,10,6,-8,7
-28,-51,-44,-48,-14,-2,9,-2,7
35,24,26,-5,1,9,26,1,7
-5,-20,-42,-29,-12,-15,-3,-2,7
-31,-6,36,32,11,-1,-3,5,7
8,5,29,31,3,-2,-23,2,7
25,15,1,-13,3,6,7,-1,7
12,-19,-52,-40,-27,-47,-44,-1,7
11,8,15,15,11,23,6,-1,7
46,28,23,19,2,-23,27,0,7
-64,-16,22,7,-9,-62,-82,-2,7
-35,-10,-21,-13,5,50,83,-5,7
27,-29,-32,-33,-28,-85,-125,0,7
7,4,-4,7,7,28,28,0,7
55,28,25,37,23,19,60,-1,7
-93,-40,-59,-21,-11,-4,21,0,7
19,25,43,8,0,19,2,1,7
-16,1,-17,-30,-32,-29,-24,-3,7
32,13,22,10,12,-7,-30,-1,7
4,13,-11,0,-1,-4,-18,5,7
22,8,-25,-18,-3,28,44,0,7
-107,-60,-15,-2,-1,-7,-23,0,7
15,8,19,8,5,29,37,-2,7
41,4,1,-6,-10,-25,-21,-2,7
8,7,34,5,5,30,26,-1,7
31,41,-12,18,8,-10,-6,5,7
-18,-35,-6,-28,-14,-4,5,1,7
-52,-30,-30,-6,1,9,-2,-2,7
22,3,18,6,3,-12,-3,3,7
-20,-13,5,-9,-6,2,30,0,7
14,32,24,14,12,27,-32,5,7
44,33,87,25,7,-3,0,-2,7
-99,-47,-121,-57,-32,-17,26,1,7
-9,-43,9,-10,-5,-12,-19,-2,7
8,7,11,1,-3,-3,16,3,7
86,25,50,10,1,8,0,-1,7
41,35,7,33,21,5,-17,-3,7
-56,9,-9,-11,-6,8,25,2,7
8,-4,-19,-15,-11,-4,-14,-1,7
-13,-24,-19,-6,1,-30,-66,3,7
-24,-5,30,21,13,44,80,-2,7
5,-4,-34,-16,-5,-1,-36,2,7
4,-18,-6,-4,-3,6,20,-2,7
-16,16,-8,12,6,2,-7,2,7
13,-5,3,1,-1,8,-4,-6,7
20,-5,16,4,11,9,5,1,7
10,21,-10,0,8,20,58,-2,7
18,2,-16,-13,-10,-22,0,4,7
-13,-26,-16,-25,-12,0,4,4,7
-4,2,24,23,9,22,20,-1,7
-16,-9,31,18,1,-14,-7,-1,7
30,12,-6,-5,-3,0,20,-2,7
33,26,58,29,8,-3,-32,0,7
77,27,-92,-49,-15,-12,0,-2,7
-106,-81,-43,-37,-26,-26,-22,-1,7
52,11,20,12,3,18,17,-2,7
-9,-17,11,-3,-3,15,9,1,7
36,22,47,32,5,-42,-31,-1,7
42,37,10,11,9,-3,-49,0,7
-32,-11,-14,-7,-1,9,37,-3,7
-2,-4,-10,-12,-18,-49,-102,-2,7
25,18,16,25,17,34,57,0,7
-55,-26,-19,-26,-17,-38,-54,1,7
-47,-24,-12,13,3,17,25,-2,7
69,85,69,13,15,40,85,1,7
-61,-45,-69,-34,-21,-84,-63,-2,7
66,14,72,31,23,74,54,1,7
-96,-23,-55,-7,-8,-57,-103,2,7
40,20,57,12,-4,11,31,-2,7
-15,-30,-82,-35,-9,23,34,3,7
0,17,26,13,11,9,45,-1,7
47,33,63,28,10,6,1,0,7
-78,-68,-126,-62,-20,-11,9,-1,7
16,-1,60,21,2,7,-15,0,7
33,4,-18,11,4,-4,2,-2,7
19,20,37,14,14,52,51,-3,7
-3,12,20,7,4,-38,24,1,7
15,-10,-50,-35,-19,-8,-43,-7,7
-57,-21,-22,-9,-6,19,33,2,7
27,16,1,-4,-3,-11,33,-1,7
-3,-21,-18,3,-1,-30,-53,-1,7
28,49,111,54,32,45,26,-5,7
-19,2,-41,-30,-17,-58,-74,-3,7
-20,-22,-42,-17,-10,23,10,-3,7
-6,2,18,5,6,2,2,3,7
-25,-14,13,2,-4,-5,-10,1,7
41,7,4,16,6,4,0,1,7
29,17,22,6,9,3,29,4,7
-87,-55,-67,-51,-21,-1,-26,0,7
-7,51,124,80,28,30,32,0,7
3,-15,-81,-51,-8,8,38,-5,7
7,-22,-41,-31,-19,-40,-59,-4,7
42,5,7,22,6,-1,-8,-1,7
-26,-10,9,5,-2,7,2,3,7
44,35,30,33,15,24,37,1,7
48,30,13,0,2,-9,9,-5,7
-46,-26,-8,-10,-1,-18,-28,-2,7
-73,-15,-51,-13,-3,25,16,0,7
26,-7,12,5,-13,-32,-40,-2,7
8,-6,-10,-7,-3,-7,-43,3,7
51,27,35,18,6,9,21,-5,7
10,0,10,-15,-7,-8,1,1,7
-3,6,4,18,6,-1,50,-4,7
8,3,13,5,-2,-6,-19,-2,7
-28,-13,-41,-40,-15,-3,-35,-1,7
-31,-11,26,2,-2,-9,-11,1,7
0,0,-45,-25,-11,0,11,-1,7
61,-30,10,43,25,26,34,-1,7
-86,-31,-25,-21,-9,-1,9,-4,7
26,-11,-5,-14,-10,-18,-16,1,7
29,26,88,35,11,11,15,0,7
1,0,-49,-32,-11,-1,-6,-2,7
38,25,21,18,6,8,3,-1,7
4,-2,-3,-9,-5,6,12,-3,7
-30,-8,8,9,2,-2,-16,1,7
-24,10,4,5,8,23,54,-3,7
25,6,4,7,0,1,-26,3,7
7,-15,-43,-20,-11,-17,-7,0,7
-15,-10,6,6,-6,-11,-60,-4,7
-38,-19,-18,-30,-8,11,32,0,7
37,17,17,9,8,8,54,2,7
-49,-20,-36,-12,-7,-12,-16,-4,7
46,39,106,17,4,3,-15,4,7
-65,-9,-73,-22,-9,-7,-6,-3,7
-4,-35,18,-9,-10,-3,3,-4,7
0,-12,-42,-1,10,3,-7,-4,7
10,7,74,29,6,5,12,-2,7
0,7,-25,-25,-7,-11,-14,5,7
22,3,-14,-2,0,4,13,0,7
19,12,12,7,4,1,-5,-1,7
-8,-8,-19,-6,-2,13,26,-2,7
38,33,57,41,19,-5,22,-2,7
-31,-31,-42,-14,-11,-35,-68,1,7
-54,-23,-21,-10,-6,3,14,-3,7
-13,-2,-47,-13,-8,19,0,-2,7
-2,0,25,7,-2,-27,-27,2,7
21,9,26,2,4,14,-32,-3,7
50,51,4,17,10,-5,19,-5,7
36,1,18,3,3,-17,-1,0,7
-29,9,-50,-16,-8,17,13,-2,7
-52,-29,-30,-17,-14,1,-24,-3,7
-9,-18,18,3,-2,0,-6,3,7
-6,4,5,0,0,7,28,-2,7
38,-12,-15,18,-1,-5,-1,1,7
38,30,-16,2,14,1,19,-1,7
49,20,42,4,-3,11,5,-6,7
-62,-31,-99,-51,-10,-10,0,-1,7
-25,-11,54,4,-5,-4,-12,2,7
-10,-5,-7,8,-2,4,20,2,7
48,6,0,0,0,-2,2,4,7
4,14,34,18,10,16,32,-6,7
-11,-3,3,-3,-4,-59,-75,-2,7
11,12,-7,2,1,27,-16,0,7
-38,-1,12,-4,0,10,41,-2,7
-7,-11,-24,-2,7,-10,-17,1,7
1,5,-7,-1,-2,40,31,-2,7
14,8,26,11,4,-31,4,-2,7
-10,14,11,1,-2,-3,-21,0,7
5,-4,36,0,0,16,32,-1,7
-24,-41,-78,-24,-8,0,5,-4,7
-32,-12,41,-8,-2,-5,27,4,7
24,8,0,5,5,14,2,0,7
-25,-9,4,-13,-12,-18,-22,0,7
22,16,51,16,11,8,-1,1,7
22,13,-9,13,3,9,21,-2,7
-19,-23,-29,-14,-8,-10,0,1,7
5,-5,-41,-11,2,1,13,-2,7
21,11,37,7,-2,-14,-81,0,7
-11,14,-15,10,8,5,1,-1,7
-21,-10,10,1,1,-2,-4,1,7
9,-4,-17,-4,-6,-16,-12,4,7
5,-5,-1,-7,-2,36,47,4,7
36,12,19,12,10,4,53,3,7
25,13,5,6,-2,-47,-112,-2,7
44,12,-23,-12,-8,0,28,-1,7
-111,-62,-32,-20,-11,-1,33,4,7
40,1,15,2,-2,-4,-3,-4,7
27,3,19,26,7,-2,19,4,7
68,34,28,-16,-3,-13,-27,-3,7
18,19,10,8,5,10,-7,-7,7
-75,-27,-4,-6,-11,7,21,0,7
-51,-22,-40,-6,-1,-8,-10,0,7
-32,-1,10,11,5,3,-20,-2,7
39,17,18,13,12,17,44,-3,7
22,22,11,0,-8,-29,-60,0,7
-2,-12,2,-8,0,22,17,-3,7
-41,-28,-19,1,-9,-18,-14,3,7
15,7,13,-3,-4,-11,-23,-1,7
-3,4,-3,12,8,3,22,-6,7
1,-1,4,-15,-10,14,6,-4,7
1,11,-2,11,2,-19,-65,0,7
-28,-16,-8,-5,-9,-20,-9,-2,7
14,-7,-8,-10,1,22,28,-1,7
4,-2,-7,-6,4,-6,21,-4,7
-38,-9,29,9,3,20,29,1,7
60,28,5,9,1,-6,-21,1,7
-10,10,-17,-9,-5,1,9,-6,7
-3,3,86,8,-6,-1,7,1,7
2,-2,-93,-15,3,10,-1,-3,7
8,-11,38,-18,-7,-13,8,-1,7
26,-1,21,7,3,16,34,-5,7
-5,10,-15,-2,-2,-5,-35,-2,7
-61,-9,43,13,1,9,27,1,7
-16,1,-3,3,-6,-24,-35,-1,7
2,-11,-34,-9,7,38,49,-3,7
30,14,11,1,5,-22,-6,1,7
30,13,-23,6,3,12,-9,-3,7
-24,-9,-11,-5,-11,-24,-26,3,7
-6,-6,0,-7,-6,-2,7,5,7
21,-1,34,34,8,14,22,-1,7
19,-3,-35,-68,-18,-36,9,-2,7
-26,-4,-21,12,2,27,30,-2,7
-10,8,-13,-4,-7,-23,-43,4,7
-18,-22,-4,-7,-5,4,4,6,7
-6,-18,-31,15,9,1,10,-3,7
32,8,43,2,3,5,4,0,7
-25,-2,14,-3,2,5,4,2,7
30,6,-39,-21,-8,-2,4,-3,7
15,20,36,20,3,-12,-4,3,7
-82,-22,5,-4,-2,-25,-53,-2,7
22,-2,-17,6,3,22,-10,-4,7
27,2,-9,-4,-3,-5,18,-2,7
17,7,14,9,6,17,-15,-5,7
17,19,14,4,3,-7,56,-1,7
-23,-31,-17,-8,-22,-74,-109,-2,7
-69,-12,-16,-11,-5,13,28,4,7
17,3,13,5,-1,-10,-1,-4,7
20,4,-6,8,9,45,40,-2,7
12,13,33,11,8,8,26,-3,7
8,4,-28,-18,-5,-17,-18,-1,7
-33,-35,-46,-7,-6,15,-4,0,7
28,23,19,10,11,-1,2,0,7
4,10,-5,-9,0,9,3,0,7
-19,-10,-25,-4,-9,-20,-29,2,7
-4,1,17,8,3,21,21,6,7
1,-2,-11,-6,-6,-25,-14,-2,7
9,-2,9,7,6,10,13,0,7
7,7,-5,-1,4,20,8,-1,7
-5,4,10,2,-1,6,-40,-2,7
15,-4,-5,-5,-1,34,48,4,7
9,12,4,3,-1,-36,-10,-3,7
8,-10,-8,-8,-1,1,7,-4,7
-24,-7,-1,0,-2,-6,28,-1,7
26,3,10,3,-3,12,-24,-1,7
10,0,-12,-4,2,-3,27,1,7
-17,10,8,-5,-1,9,-8,-4,7
-32,-12,1,-3,-5,-13,2,-1,7
-19,-13,-8,-4,-1,3,1,1,7
-4,8,8,2,0,6,-5,-1,7
51,-13,-8,2,0,-13,-16,1,7
-42,5,6,-2,-2,7,3,0,7
3,-15,-9,-12,-5,-4,10,1,7
-34,-12,-14,-4,-3,-11,-28,-3,7
2,2,10,5,-3,4,-14,0,7
42,0,-12,-1,2,4,18,3,7
-22,-7,4,0,-2,-9,-33,-1,7
17,6,7,1,2,10,6,-1,7
-6,3,-2,2,3,-13,-11,-5,7
-1,14,17,4,-1,3,-6,3,7
-4,6,37,4,-1,-1,14,-4,7
-21,-24,-75,-8,1,21,20,1,7
5,-10,-21,-5,-5,-11,5,-1,7
4,0,12,0,4,16,1,-3,7
23,9,-9,-1,1,-15,-9,-3,7
16,27,127,25,4,9,13,0,7
-8,16,-74,4,3,14,32,3,7
-14,-30,-104,-64,-16,-20,-5,-1,7
1,-13,33,1,-7,9,4,-2,7
-23,-10,2,7,4,-13,0,0,7
2,0,35,13,6,6,-3,1,7
32,23,75,29,8,0,-3,-1,7
-12,-4,-64,-15,0,-2,-3,-1,7
0,-5,-13,-13,-10,-10,-7,0,7
7,9,27,9,9,3,9,-5,7
-14,-6,-17,2,2,10,8,-1,7
8,-2,15,0,-4,-16,-27,-1,7
6,-1,-15,0,4,13,12,-1,7
3,12,3,-6,2,-8,18,4,7
-29,-37,-3,-3,-11,-15,-52,-3,7
-5,16,-7,3,4,7,11,0,7
10,-8,-16,-8,-4,1,-1,-2,7
-9,-8,5,-6,0,5,13,0,7
20,45,71,25,6,-4,8,-1,7
-6,-15,-84,-19,-12,-11,-1,4,7
-5,-6,-36,-3,6,17,10,-2,7
-21,-17,-3,-9,-8,-12,-18,2,7
25,5,34,19,8,6,-2,-3,7
12,13,32,9,6,6,7,-7,7
-3,9,41,2,1,3,-2,4,7
8,-6,-44,-15,-3,0,-9,-1,7
9,-2,-41,-6,-4,-6,11,-4,7
-3,0,15,3,0,15,50,2,7
-38,-9,-3,-1,-2,-5,-35,-4,7
21,7,48,11,5,8,3,-3,7
-6,-12,-10,-7,0,-15,-25,-1,7
-3,3,-7,4,2,19,1,-3,7
12,-10,22,3,0,-16,-11,-2,7
36,13,-44,-20,-8,10,6,2,7
-46,-13,-9,0,-3,-10,3,-4,7
-38,-18,-4,-4,-3,-1,-1,-1,7
29,19,23,16,8,12,20,3,7
-27,-23,2,1,-5,-21,-40,-2,7
30,-4,-21,-22,-10,0,2,3,7
7,8,23,11,5,-4,-17,-4,7
2,10,29,5,-3,0,11,1,7
7,18,6,15,11,13,34,0,7
18,9,28,10,3,11,-14,0,7
-44,-27,-61,-38,-21,-49,-60,0,7
-17,-14,-16,-7,-5,3,-8,-3,7
0,-2,14,2,1,2,14,-1,7
13,18,48,16,6,25,40,-4,7
18,12,4,14,7,-17,-43,-3,7
18,7,-17,-13,-10,-14,-5,-1,7
-11,-6,12,-4,-10,-37,-54,1,7
15,-1,-24,5,6,-1,2,3,7
14,15,31,18,10,19,53,-4,7
-15,-8,-4,-7,-9,-26,-46,-5,7
-14,-18,-35,-14,-3,19,6,0,7
-8,-8,-8,-12,-9,-15,7,3,7
27,6,15,9,9,11,10,2,7
-6,2,-15,2,5,6,5,3,7
23,24,70,31,10,5,5,0,7
-19,-11,-28,-28,-12,-9,-5,-2,7
0,-24,-6,-13,-9,-5,1,-1,7
-25,-7,-94,1,0,4,6,-2,7
-21,-35,-61,-27,-9,-2,3,-4,7
10,14,33,20,9,-3,-1,3,7
-3,5,4,-1,1,20,39,1,7
15,-15,14,-13,-9,-7,-64,-2,7
-39,0,27,6,1,-13,-3,-2,7
-12,-4,-11,3,-8,-18,-33,-4,7
14,12,22,2,4,4,7,1,7
23,-3,0,1,2,8,43,1,7
-12,4,-10,2,3,23,9,1,7
-2,-8,0,-5,-3,-24,8,-1,7
3,15,-2,5,1,2,-16,-1,7
15,-6,-6,-8,-4,3,17,2,7
-7,-6,4,-1,-4,2,-6,1,7
-7,9,3,2,0,14,28,-5,7
0,-18,8,0,-1,0,-4,-4,7
-8,15,35,1,2,-6,5,1,7
9,-8,-60,-15,-5,0,18,-3,7
19,33,91,17,2,5,-15,-2,7
14,8,-119,-12,-2,-2,0,-1,7
-56,-31,11,-21,-6,-15,18,0,7
3,9,24,10,6,31,-6,-2,7
-8,-11,-12,-3,-4,-9,15,-1,7
-7,6,89,18,-1,-38,-75,0,7
31,23,-70,-4,5,33,49,-5,7
-2,-3,10,-5,-1,-29,-17,1,7
0,-5,-26,-1,2,22,14,2,7
0,1,22,-3,-2,-10,-49,-1,7
2,-4,3,5,-1,-1,-6,1,7
12,10,18,6,7,12,17,-6,7
-5,-16,-27,-8,-2,-2,4,3,7
6,14,28,11,1,-7,-23,3,7
-24,-3,-46,-17,-10,-7,-5,-1,7
22,-19,-12,-4,-6,-1,-1,-1,7
-46,-2,16,17,7,4,13,3,7
-1,-10,-37,-15,-1,16,28,-1,7
32,24,33,18,5,-4,-9,-1,7
21,13,38,-4,-4,-2,11,1,7
-6,-23,-63,-4,-2,-6,-20,-3,7
-16,-15,-19,-14,-5,4,32,-2,7
19,-1,31,11,5,10,1,-4,7
-16,0,-3,6,1,-7,-18,3,7
5,5,23,3,6,7,-5,-1,7
-9,4,4,-1,-4,4,30,1,7
-29,-9,-28,-12,-6,-17,-11,-7,7
-13,-3,8,3,-3,10,7,-1,7
24,3,-12,-4,-1,-7,5,1,7
17,9,19,4,-1,12,0,-2,7
-4,-7,5,-1,3,-1,-1,0,7
-4,6,23,8,-2,-3,2,-2,7
14,20,7,5,-3,-6,-7,-4,7
-14,-32,-113,-28,-6,-4,15,-4,7
14,-4,35,7,-3,-2,-13,-1,7
-37,-19,-10,-3,-1,-5,-3,-1,7
34,18,31,8,-1,-13,-15,1,7
-8,-8,1,-2,0,1,5,2,7
-12,-6,13,-2,0,5,7,-2,7
17,12,-48,-7,-4,5,8,0,7
-23,-17,-1,2,0,-5,-1,-4,7
8,-1,20,7,0,-4,-6,-3,7
-16,1,10,4,6,15,10,-2,7
-9,4,19,6,5,3,-9,-4,7
43,23,4,-11,-2,11,10,1,7
-9,-2,-16,-4,-6,-14,-3,-1,7
-1,-1,18,4,-1,-6,-7,1,7
-5,0,22,4,2,-12,20,1,7
-14,-6,5,1,1,12,-13,-2,7
3,3,-48,-2,5,18,13,-2,7
-1,-14,-22,-10,0,3,10,-3,7
4,7,31,5,1,-13,-16,0,7
10,8,34,0,-1,-4,-3,-1,7
-15,4,54,5,-5,1,7,0,7
3,5,2,10,3,-13,2,4,7
5,-14,-81,-17,-11,-21,-48,-2,7
-4,-5,15,-1,5,11,7,0,7
28,13,20,1,1,2,4,2,7
-18,-6,-2,-2,-3,-3,2,3,7
-31,-11,10,-3,-2,11,20,-2,7
4,-8,-40,-6,-2,-15,-12,-3,7
16,3,39,5,-1,-2,-22,1,7
26,13,-30,0,0,3,0,3,7
1,7,15,6,4,16,23,1,7
-16,-7,-29,-5,-9,-21,-47,-1,7
-14,-7,19,-1,0,7,32,-1,7
5,6,-25,-4,-1,-16,-23,-2,7
10,5,25,9,-1,12,6,-2,7
-3,-7,-38,-13,1,14,25,-4,7
-19,-8,15,-5,-6,-23,-17,-3,7
-4,-10,-21,-6,-6,-9,-2,-1,7
17,-4,-1,-3,0,1,7,2,7
-4,8,23,9,3,-1,-14,1,7
-15,-1,55,11,4,7,3,1,7
23,2,-28,-6,1,11,6,-3,7
7,17,-32,-11,-5,-9,-6,-2,7
-20,-22,-14,-7,-3,4,10,0,7
-2,5,-2,6,2,-5,-7,-1,7
-2,-11,37,5,1,3,-1,1,7
12,8,15,4,3,0,-5,0,7
-5,-5,-6,4,-1,-6,6,0,7
-1,0,2,-4,-1,4,8,-2,7
-9,2,11,-2,4,6,-24,1,7
6,0,-8,-3,0,-14,0,-6,7
-22,-22,-54,-12,-7,13,29,-2,7
-2,-2,-2,2,1,1,-7,-2,7
0,8,28,9,-2,-4,10,0,7
-6,-3,11,2,2,11,6,-2,7
19,10,19,6,5,-16,-17,2,7
4,0,-30,-5,1,5,15,0,7
16,8,47,6,0,15,2,-1,7
-9,-12,-30,-5,-7,-14,0,-1,7
-11,-1,14,-5,-2,5,-9,-4,7
8,2,-8,6,1,-4,-1,1,7
9,16,-14,3,4,0,-8,-3,7
5,-1,1,-6,-4,-5,6,-1,7
2,5,28,3,1,7,1,2,7
0,-7,-94,-11,-1,-2,-6,0,7
10,-5,12,4,0,1,13,2,7
-9,5,5,2,1,9,7,-3,7
15,-15,3,-2,4,-8,-7,-2,7
-25,11,39,6,-3,-6,-23,-1,7
-2,-8,-18,-7,-3,-9,4,-4,7
2,-2,-14,-9,-1,4,0,2,7
22,12,4,-4,-1,-10,16,0,7
3,-11,-4,0,4,17,-2,-3,7
-15,0,31,-1,-7,-21,12,-1,7
0,6,25,9,0,4,-20,0,7
-2,-11,-84,-10,-3,-7,9,3,7
3,-3,10,1,-3,0,-4,2,7
-12,-2,-20,-11,-3,2,2,-3,7
1,-5,39,5,1,-8,-10,-1,7
11,16,17,6,0,1,-1,-2,7
-7,-23,-24,-10,-5,-5,6,-2,7
-15,1,15,8,2,-4,-26,-3,7
-12,-7,-19,-11,-1,-4,-4,1,7
17,13,-11,1,-2,2,-1,-1,7
-16,5,-6,-2,-2,-11,-16,-3,7
-8,-10,-7,-13,-5,20,14,-3,7
10,-2,-34,3,2,-2,-2,-1,7
-10,-4,34,7,2,-3,-8,-1,7
28,21,-3,4,1,5,31,-2,7
-42,-14,-8,-4,-5,-24,-32,2,7
9,-3,-22,0,2,9,5,-2,7
-30,-5,17,-9,-4,8,7,-3,7
14,-10,-6,-4,0,0,20,7,7
10,-4,-8,1,-4,-14,-46,6,7
0,5,16,-3,-1,2,3,-3,7
-7,-2,9,3,0,2,-5,2,7
3,0,6,-1,-1,-9,-1,-6,7
4,6,-1,-1,5,19,31,2,7
-1,6,21,12,-5,-29,-65,-1,7
1,-14,-18,-6,-4,8,9,1,7
-21,3,5,-2,-3,-18,-16,1,7
6,3,-10,-2,3,14,39,-4,7
17,9,-18,3,-2,-11,-25,6,7
-16,0,-2,-8,-1,-6,-3,-2,7
-1,1,9,-1,0,10,5,-5,7
19,-6,-6,6,4,-3,16,-2,7
5,2,37,3,2,6,11,-1,7
13,7,-29,-4,-3,-8,-14,-3,7
-13,-7,31,6,3,0,-5,0,7
-9,1,18,0,-2,-3,-10,2,7
-1,-9,-22,-13,1,9,16,-4,7
-5,-2,3,1,-5,-2,2,-1,7
-4,8,33,9,4,-4,-4,0,7
12,-6,-56,-10,-2,-9,-7,-2,7
-5,-3,2,-7,-8,-12,-27,4,7
-9,-7,6,3,6,12,29,0,7
14,7,36,5,-2,-3,-35,-2,7
-7,5,3,6,-1,3,3,0,7
-12,-7,-17,-2,6,10,27,0,7
7,0,12,-2,-6,-11,-13,4,7
8,-4,-26,-8,0,19,10,0,7
7,11,49,10,1,10,5,-1,7
-3,-4,-37,0,1,-16,4,-3,7
-17,-23,-40,-20,-5,8,14,4,7
-4,10,13,3,-3,-6,-7,4,7
16,1,-53,2,2,5,-7,-4,7
-7,-5,17,4,1,9,29,2,7
-40,-16,-10,-7,-5,-2,-4,1,7
-9,-12,-15,-8,-2,-9,-15,1,7
15,14,60,10,2,4,13,-2,7
3,1,-11,1,3,7,1,1,7
19,15,-11,5,0,-6,-12,-1,7
-5,-7,-15,-10,-1,7,15,-4,7
-6,-2,10,-3,-1,-8,-6,-1,7
2,1,13,2,0,6,10,2,7
3,7,26,12,3,1,-10,0,7
12,-2,-3,-3,-4,-9,-3,-2,7
-11,5,1,-4,-3,1,-12,-3,7
-21,-14,2,-6,-5,3,16,-4,7
20,3,-4,2,3,0,-7,-5,7
-11,-9,-6,7,4,6,12,3,7
7,6,-20,4,7,27,14,2,7
-5,18,18,-7,-2,-14,-11,-2,7
-13,-22,28,1,-9,-12,-3,-1,7
13,3,-23,-7,3,-3,3,-4,7
3,5,47,2,-1,-10,-3,-1,7
-19,-11,-59,-6,2,-4,-20,4,7
17,4,7,2,0,10,14,0,7
-13,-3,6,3,3,-5,-4,3,7
6,4,3,-1,-3,-2,11,1,7
3,0,13,-2,-3,3,2,-3,7
6,4,-4,-4,2,-4,-23,-2,7
-9,-5,11,4,0,-3,1,1,7
8,-7,-41,-10,-6,-7,-3,-2,7
-4,1,6,2,0,1,-10,-2,7
-27,-8,14,-3,0,-4,3,-3,7
21,23,1,10,1,14,13,-3,7
-12,-30,-47,-18,-9,-18,-20,3,7
5,6,75,4,0,0,7,-4,7
12,12,-64,-2,2,10,10,2,7
-7,1,24,1,-4,-5,-3,0,7
-11,-10,3,1,1,-3,-2,-2,7
7,-2,24,8,-2,7,16,-1,7
15,8,8,3,0,-10,-23,2,7
-3,-5,-19,-8,-2,2,9,-3,7
-34,-4,-10,-3,-5,-5,4,-2,7
9,7,13,10,4,1,-5,-1,7
6,6,3,5,0,2,-12,-2,7
4,-5,-34,-15,-4,-7,-2,-2,7
-6,0,20,2,0,-1,4,1,7
3,3,14,5,-1,-7,2,4,7
-5,-1,-4,-6,1,18,18,-1,7
12,1,8,4,-2,-1,3,-5,7
4,-3,-20,-17,-6,-20,-32,-2,7
-6,-1,5,0,-1,15,13,1,7
3,5,46,4,-1,-7,5,-6,7
18,12,-33,9,4,12,14,0,7
-10,-4,25,-1,3,5,11,3,7
-31,-15,-43,-9,-7,-10,-7,1,7
6,0,12,-1,1,2,3,-5,7
10,21,18,-4,-2,-4,-9,2,7
29,-6,22,8,2,-3,1,0,7
-18,-6,-56,-8,-1,-2,0,-3,7
-1,-2,62,8,1,-1,3,0,7
0,5,-39,-1,-2,-7,-25,0,7
-1,-2,-31,-6,-1,8,17,0,7
6,-9,-1,-4,-3,-11,-5,-1,7
0,-2,-2,3,1,-8,-1,1,7
-3,-4,15,-6,-1,10,-8,-1,7
-4,2,-2,0,-3,3,7,-2,7
-19,-6,4,3,2,1,11,0,7
9,7,11,5,-5,-12,-16,-4,7
5,-7,38,-14,-3,-4,4,-2,7
0,-9,-88,-3,4,11,-8,1,7
12,6,18,-5,-2,9,13,-1,7
-5,-3,-34,-3,-3,-6,-1,2,7
-16,-9,25,5,-3,-14,-10,0,7
6,7,35,8,2,9,10,-5,7
2,-6,-48,-11,-4,-7,-3,2,7
-20,-17,-13,-6,-2,-5,-10,-4,7
-2,-2,-2,3,1,3,8,1,7
-2,12,36,10,3,2,-6,1,7
33,16,28,4,-2,-14,-26,-4,7
-32,-9,-40,-18,-8,10,17,1,7
-41,-31,-24,-6,-1,3,12,1,7
0,6,16,2,-2,-8,-17,-4,7
10,-4,-7,3,1,2,10,-4,7
7,9,32,6,6,3,3,1,7
17,5,7,7,3,-1,4,0,7
7,7,-28,2,-4,-2,-3,-6,7
-5,11,28,2,2,11,21,1,7
-27,-20,-75,-21,-10,-19,-23,-5,7
-3,-13,-1,-2,-3,17,9,1,7
7,10,37,9,3,-2,9,2,7
13,6,9,2,3,1,-5,0,7
21,10,11,4,5,5,19,-2,7
-4,-4,4,-1,0,-10,-14,1,7
3,20,108,23,6,-2,-7,1,7
5,-13,-102,-35,-3,7,7,0,7
-10,-13,50,-1,-2,-5,-18,2,7
12,-23,-11,-7,-7,-5,-3,-4,7
-45,-18,-2,-11,-2,7,18,-4,7
-2,4,16,12,2,-8,-5,-3,7
22,11,-2,8,-4,2,-26,2,7
15,13,-9,4,2,-2,1,-1,7
9,1,-14,-5,-2,0,11,0,7
-14,-9,21,4,-2,-2,-29,-2,7
10,5,-48,-5,1,3,23,-6,7
1,7,24,6,0,-2,4,1,7
-6,-10,-34,-14,-8,9,-4,-2,7
-9,-3,12,-1,-4,-12,-16,0,7
2,4,13,1,2,-2,5,0,7
-4,2,-8,2,3,0,-4,2,7
1,-11,-18,-3,-1,-6,4,-3,7
6,-5,7,1,-5,-11,-33,-4,7
5,6,35,8,2,9,10,-1,7
-5,10,18,12,5,1,1,-5,7
6,-6,-23,-14,-2,-8,-5,1,7
11,-25,-2,-8,-5,-7,-6,-4,7
-13,0,-38,-10,-2,3,17,1,7
-26,0,18,-1,-1,5,1,-1,7
10,2,7,6,3,4,-4,0,7
9,7,8,6,1,-1,1,0,7
15,6,37,9,5,6,7,0,7
5,2,-44,-3,-1,-15,-21,-3,7
-5,-6,23,-7,-8,-4,4,-2,7
6,21,-21,-9,-1,10,23,1,7
3,-3,-55,5,6,9,6,-1,7
5,-29,-20,-10,-11,-13,-20,3,7
-41,-18,-8,1,3,7,-18,4,7
-2,9,12,1,-4,-10,-14,-2,7
9,9,32,6,0,-2,3,2,7
13,7,-1,-3,1,1,4,-7,7
21,7,27,13,4,2,-1,3,7
-4,5,1,-9,2,11,18,1,7
3,-4,-33,-10,-4,-3,-7,-4,7
-24,-9,-8,-1,0,9,13,1,7
6,-4,5,-1,-7,-8,-4,4,7
-14,-1,6,5,3,9,-2,1,7
-10,-7,7,0,-3,-8,1,1,7
9,12,-3,-3,2,8,5,1,7
1,3,16,5,0,-1,10,-1,7
12,-3,-27,1,1,-4,3,2,7
0,-2,20,-4,-3,-5,-12,-1,7
-22,-8,-18,-4,-3,-1,7,-2,7
8,16,5,-1,2,-3,1,1,7
-11,-11,-8,-2,-1,4,-1,0,7
16,3,-36,1,0,-3,-3,0,7
-8,-6,13,-5,-1,-1,9,-3,7
7,-5,3,-3,-3,-1,1,-3,7
-14,-7,-2,-3,-2,4,10,-5,7
-9,-1,13,-3,-2,2,-10,2,7
14,9,18,8,3,1,1,-1,7
14,7,8,-4,2,0,-12,-7,7
4,-1,-34,3,-1,-14,-3,3,7
-23,-12,1,0,-1,8,8,-2,7
2,6,-5,-4,-2,-5,-6,0,7
-14,-10,-28,-7,-4,0,4,-3,7
14,6,22,11,5,6,-1,-6,7
-6,6,-2,-4,1,-3,-4,-4,7
-7,-3,-4,-6,-5,-3,-3,1,7
-4,7,1,7,2,-4,-1,0,7
20,-1,30,3,-2,0,7,0,7
-21,-12,-40,-17,-4,2,-24,2,7
-6,-10,39,3,-4,-9,-6,0,7
3,10,-34,0,3,2,11,4,7
11,3,29,-1,1,-4,0,2,7
-4,1,1,2,-1,1,11,0,7
-5,-4,-46,-10,0,5,5,-4,7
1,-5,15,5,-4,-8,-23,-1,7
-34,-13,-41,-7,2,11,1,-7,7
22,20,42,9,1,-18,7,-2,7
7,1,5,0,1,17,5,0,7
5,-7,-34,0,1,-12,-4,-2,7
2,5,28,8,0,2,2,2,7
-11,-10,-5,-9,-3,-11,-15,-3,7
15,8,26,3,-4,-11,-1,-1,7
-11,-13,-49,-10,-2,5,8,2,7
5,6,13,3,3,2,5,-2,7
1,-15,-1,-3,-4,-3,-2,0,7
-26,-1,-3,1,-2,-2,-9,-3,7
15,16,24,3,4,9,10,0,7
6,4,30,5,1,-6,-10,0,7
-9,-5,-42,-5,2,8,11,-3,7
8,2,8,-3,-2,13,13,-2,7
-6,1,-11,-6,-3,-7,-12,-2,7
-5,5,-29,-4,-2,0,4,-1,7
-1,-7,47,6,4,1,6,3,7
11,-4,-6,1,0,0,0,-1,7
-4,2,-9,-5,-3,2,13,-2,7
7,-4,33,-3,-2,-2,-2,0,7
-8,0,-8,4,-3,0,-12,-3,7
-8,-3,-23,-5,0,-4,6,-3,7
8,0,19,4,1,-1,-13,3,7
-3,-4,3,-1,-2,-3,-8,4,7
14,20,52,10,0,0,7,-1,7
-31,-11,-67,-8,1,1,8,-1,7
-4,6,19,-5,-2,-2,-11,-3,7
1,-9,-33,-4,-6,0,-4,-2,7
1,0,15,-2,-2,5,13,1,7
20,4,9,13,2,-14,-9,-2,7
3,7,3,3,0,-4,-4,-2,7
-12,-4,-12,-1,0,-2,3,3,7
4,2,19,7,0,-5,-4,1,7
-16,-10,11,-2,1,10,-3,-1,7
-2,-10,1,-4,-3,6,-1,0,7
11,-1,-61,-2,1,2,5,-6,7
-18,-15,-10,-9,-4,4,7,2,7
16,5,17,1,-3,-8,-12,-1,7
-10,-3,8,-1,-3,-3,5,-2,7
4,5,15,4,-1,-9,-17,-3,7
2,8,54,15,4,14,2,2,7
-3,-5,-94,-21,0,-12,-15,1,7
15,-2,9,-4,-8,-3,5,2,7
-38,-3,11,-1,0,2,14,-2,7
7,-4,-25,-7,2,1,-4,-2,7
12,7,52,9,2,1,-7,1,7
5,4,-10,5,5,4,2,1,7
8,4,60,4,-3,-15,-13,-1,7
-3,-7,-68,-8,-3,9,14,-4,7
-6,-5,34,2,2,6,4,0,7
-6,1,-39,-5,-3,4,5,-1,7
6,1,11,2,0,-3,2,6,7
-5,13,69,11,2,-6,-1,2,7
10,-4,-83,-11,-3,-2,-25,4,7
-5,-7,6,0,1,2,10,-9,7
-6,-5,-14,0,-1,0,3,-3,7
10,0,-11,-1,-1,-4,-10,1,7
0,3,15,5,-2,3,12,3,7
-4,0,17,3,3,6,3,4,7
3,-1,-23,-1,0,3,6,-1,7
1,-12,-11,-4,-2,-15,-36,0,7
14,15,38,4,-2,-2,14,-5,7
-9,-6,-31,-1,-1,1,-11,1,7
-3,-5,-4,-5,2,12,16,1,7
-15,-15,-21,-3,2,9,20,-1,7
9,16,59,12,2,-10,-21,-2,7
-1,15,-10,-1,-1,-6,3,1,7
-28,-28,-21,-9,-6,5,-3,2,7
18,7,-33,-6,-1,8,5,-1,7
-1,1,20,8,2,2,2,-3,7
4,2,13,-1,-1,-4,9,1,7
5,4,-4,-4,-2,-17,-14,-1,7
5,10,12,0,-4,-5,-14,-5,7
9,-2,0,-7,-3,1,12,2,7
-10,-13,-27,5,2,-3,-10,-2,7
5,10,9,-1,0,4,11,4,7
6,-8,6,-5,-5,-3,13,-1,7
-16,-1,-15,1,0,-13,-18,3,7
2,-8,-7,-1,-1,4,-2,-1,7
2,-2,20,3,3,1,-3,-5,7
13,11,-25,1,-1,-2,2,-1,7
-9,0,5,5,-2,2,15,0,7
-11,-10,-4,-13,0,-8,-8,-3,7
1,1,12,2,-2,1,-9,0,7
13,2,15,5,5,-4,6,-3,7
-6,-9,-1,-2,-3,4,7,0,7
-13,-23,4,-5,-1,1,-18,-1,7
9,15,-19,3,2,2,6,-1,7
8,-1,29,0,0,-1,16,3,7
-8,4,-37,-7,0,0,-8,1,7
5,-6,13,3,-2,-13,-6,-6,7
-13,7,10,0,2,4,3,-2,7
3,3,-2,0,-2,-1,3,0,7
3,-10,6,-2,-1,-17,-16,-5,7
10,9,-8,1,-1,1,2,4,7
3,-4,-3,0,-5,10,4,-2,7
-6,3,-23,-2,-2,-4,-7,-1,7
-1,-3,22,1,1,6,8,3,7
4,-4,-19,0,0,-2,-1,-4,7
-5,-5,30,5,-3,-6,0,2,7
-8,3,14,0,0,1,-4,1,7
9,-1,-28,-6,-1,3,4,1,7
-5,3,5,-8,-4,-6,-5,4,7
-6,-10,-22,-8,0,7,9,3,7
-5,-7,2,4,-1,-8,-12,-2,7
-4,0,-6,3,2,9,7,-7,7
11,7,33,7,1,4,4,5,7
-2,10,37,8,0,-11,-16,-2,7
-14,-17,-105,-22,-4,2,11,3,7
10,-11,3,-10,-6,-10,1,-1,7
-10,4,5,11,4,1,10,-5,7
5,-4,-4,-4,-3,11,-1,1,7
0,6,34,10,3,0,-9,-3,7
6,10,17,3,2,1,-1,-3,7
-6,-6,0,-2,1,-4,-18,1,7
19,9,-5,-1,0,-8,0,-1,7
-9,-11,-11,-1,-2,1,1,-4,7
-24,-17,-13,-6,-4,7,13,-2,7
-10,0,3,0,-1,4,-5,1,7
4,-3,13,0,3,-5,-11,0,7
14,5,-9,3,-3,6,0,2,7
7,5,12,-5,-2,-7,-8,-1,7
5,3,46,5,1,3,7,2,7
-4,-14,-97,-18,-4,1,-1,-2,7
-20,-10,24,-6,-7,-6,5,-1,7
-7,8,3,4,2,-5,-9,-4,7
18,-3,-20,4,-1,6,4,-8,7
4,2,-32,-4,1,5,15,0,7
-19,0,13,3,4,0,3,0,7
22,15,12,4,2,-3,-2,-4,7
-9,-3,-1,0,-2,4,9,-3,7
2,2,25,1,3,-6,-6,-4,7
-5,-5,-17,-5,1,4,-5,-3,7
0,0,14,3,1,2,1,4,7
10,5,-7,-2,1,8,7,1,7
-22,-2,-16,0,-3,-11,-7,0,7
-10,-14,2,-4,-2,-1,4,-2,7
5,-1,10,1,-1,12,4,-6,7
0,-3,-15,-3,-5,-26,-20,0,7
-8,-4,29,0,-3,-8,-28,-1,7
14,14,61,13,2,1,-5,1,7
3,-4,-62,-9,-3,4,10,0,7
1,-9,-24,-6,-1,4,11,-2,7
-4,-1,-26,2,-3,7,6,0,7
-12,1,-4,-11,-9,-12,-7,1,7
-8,-10,17,6,1,9,13,-5,7
-3,12,16,-3,-2,-9,-6,-5,7
18,18,70,16,3,-11,-31,-4,7
21,-14,-55,-7,1,5,15,-3,7
-47,-12,2,-12,-6,-8,-11,0,7
10,0,-16,-1,1,5,14,-1,7
12,1,-10,1,2,2,9,1,7
1,13,27,6,1,-4,-8,-1,7
18,6,10,4,1,1,-4,0,7
1,-2,-6,-1,1,8,-3,3,7
-10,-4,0,-8,-8,-1,16,-2,7
2,5,15,8,3,-2,-7,-4,7
6,-1,-16,1,1,9,10,-6,7
-18,-5,-3,3,0,2,5,0,7
0,-2,-1,-4,-1,-6,-22,2,7
4,-8,-22,-7,-4,-8,-3,1,7
5,4,-13,1,-4,3,-1,-1,7
1,3,19,6,2,2,1,-5,7
-4,-6,22,2,2,0,13,0,7
-1,0,-47,-9,-4,-6,-13,-4,7
-5,-17,-1,-7,-3,4,-2,2,7
5,1,10,-3,-2,0,1,2,7
-34,-15,-42,-10,-4,-1,12,-3,7
11,6,41,13,6,6,3,-4,7
21,10,-6,2,1,-8,-9,1,7
-10,2,1,-4,-9,-4,-2,-3,7
11,-1,20,4,5,6,7,1,7
-9,-5,0,-1,-2,4,4,-1,7
-1,6,13,0,-2,8,4,0,7
0,-1,1,-1,2,-22,-19,0,7
7,7,27,12,4,12,-8,-2,7
6,-3,-42,-16,-6,9,12,3,7
0,-2,-14,-3,-2,-5,13,1,7
-13,-8,0,-3,0,-2,-9,2,7
-12,-8,0,-1,-4,3,29,-3,7
5,10,34,12,6,6,-18,-2,7
5,9,4,-4,1,-2,8,1,7
2,-4,-6,3,1,-2,-18,-1,7
1,-5,-10,-19,-9,-16,-4,-1,7
2,0,-7,0,-3,-4,5,3,7
-9,-2,11,6,-2,-12,-18,0,7
-4,-1,-9,1,2,13,10,-3,7
7,4,-15,-1,0,1,5,2,7
-5,-7,15,4,5,2,-4,-3,7
-7,-11,-14,-3,-3,-4,3,-2,7
15,8,11,-1,-2,-6,0,0,7
-6,-1,-4,-1,-3,4,-8,-3,7
-4,2,-1,-5,-2,3,11,-1,7
4,4,28,11,3,2,-1,-1,7
11,3,-40,-6,-3,4,10,-2,7
-22,-19,-26,-11,-4,-3,8,-4,7
-9,1,8,2,-2,-12,-9,-1,7
4,-2,12,7,2,0,-4,1,7
2,15,4,-3,-1,9,11,-8,7
-3,-5,2,-5,-2,-10,9,-1,7
-4,-20,-31,-6,-2,2,-11,3,7
-3,-1,5,4,0,7,2,-3,7
2,3,22,-1,-5,-4,3,-2,7
14,7,2,8,3,-3,-8,-1,7
-28,1,-8,-7,1,9,13,1,7
25,-7,13,1,2,-4,-2,-3,7
-3,5,-16,2,-1,-1,4,0,7
11,-2,7,-2,-1,12,8,-1,7
-8,9,-4,0,-3,-14,-11,-1,7
3,-9,-31,-8,-1,-1,-3,7,7
-14,-8,3,1,-1,-6,3,2,7
9,-3,5,6,0,0,-1,3,7
19,17,19,7,4,8,-6,-1,7
-5,6,2,-4,-4,9,13,-3,7
0,-13,-4,-4,-2,-11,0,-1,7
-15,0,-10,-7,0,-8,-17,2,7
-3,-4,23,9,-1,4,10,-4,7
-19,-4,-26,-9,-1,-8,-8,-2,7
5,3,19,4,-3,4,-1,2,7
7,1,-36,-6,1,2,2,-5,7
2,-4,-39,-6,-3,-7,-4,-2,7
-3,-4,28,3,-1,-8,-9,-3,7
-5,-5,-15,-3,1,17,5,0,7
4,1,0,-1,-5,-15,-12,1,7
-14,-12,8,4,3,0,4,1,7
8,10,4,0,-3,-8,1,-2,7
11,1,-13,-1,1,-3,-3,4,7
-7,3,9,-1,1,4,-8,-2,7
1,1,5,-2,-1,-3,6,1,7
-6,-4,-4,-2,-2,-2,0,2,7
-2,2,34,5,1,-8,-8,3,7
16,11,-6,1,0,1,2,4,7
0,-2,0,4,-1,3,5,0,7
-12,-2,-8,-10,-5,2,15,-3,7
1,-12,-42,-15,1,-3,-8,1,7
1,0,2,5,2,14,1,-2,7
10,2,15,2,0,0,-8,-2,7
-7,2,17,5,1,-3,-4,0,7
4,2,12,6,-1,3,13,-4,7
-5,4,36,10,3,-14,-19,3,7
-4,1,8,-6,-5,3,10,-4,7
-9,-16,-75,-10,-1,3,-1,0,7
18,10,7,0,0,-1,0,-5,7
-19,-8,-6,-2,1,11,17,-1,7
2,-9,-43,-6,-4,-16,-3,0,7
-9,-6,-11,1,-2,3,-16,-3,7
2,4,10,1,1,10,4,-4,7
15,7,27,5,1,-1,6,-2,7
5,9,20,5,2,-2,-8,1,7
-6,-1,11,0,2,-2,8,-1,7
-5,-7,-41,-3,-4,-12,-20,2,7
17,4,8,0,-2,-1,0,-1,7
-22,4,-11,-9,-3,-6,-1,2,7
8,3,18,2,2,17,8,-3,7
-20,-5,27,3,-3,-3,-8,0,7
18,7,-2,3,1,-5,4,-2,7
-1,1,-26,-8,-5,2,-4,-2,7
1,6,25,1,-2,-6,-10,1,7
-7,11,62,17,6,12,12,-3,7
-5,-6,-68,-19,-5,-1,0,0,7
13,-10,-1,-7,-5,-12,-14,-2,7
-9,4,3,3,-3,-2,7,4,7
-9,-7,-3,-5,-1,-6,5,0,7
-10,-3,41,13,5,7,0,0,7
14,11,-20,5,3,1,-16,-5,7
-8,-14,-26,-14,-3,-8,0,-2,7
8,3,-3,2,-1,3,14,1,7
-13,-1,4,-8,-2,2,-17,-1,7
3,-4,3,4,2,-2,12,1,7
21,7,18,5,1,3,-3,1,7
-19,-9,2,-5,-1,-6,2,-2,7
14,3,-34,-3,-6,-8,-7,-3,7
-6,-5,2,1,-3,4,13,-3,7
12,2,7,-3,0,-2,-3,-2,7
-14,4,35,2,-1,2,-4,2,7
2,-11,-64,-4,-4,-2,2,0,7
15,0,76,6,-1,-3,-4,-1,7
-13,-3,-61,-4,3,8,15,0,7
9,-1,12,-4,-8,-12,-4,-1,7
-17,1,-4,3,2,-15,-8,0,7
-12,-7,-32,-4,1,18,4,-1,7
-2,-3,22,5,-1,-5,-3,-2,7
18,6,-14,-1,4,6,14,-1,7
-9,-8,6,-4,-1,-4,-21,-5,7
2,5,13,3,0,9,4,2,7
4,-1,-2,0,0,-3,-5,1,7
-11,-4,-20,-3,0,-2,-3,1,7
6,8,42,5,3,0,17,-2,7
0,-13,-35,-6,2,6,2,-2,7
-10,-8,26,4,-2,-7,-23,0,7
-2,-1,-20,-2,0,-5,-15,-5,7
7,3,35,3,0,13,12,-2,7
9,2,-18,-10,-2,-3,10,-2,7
-11,-5,-14,-6,-1,-8,-12,-1,7
5,7,16,5,-2,-4,-18,0,7
-2,-7,5,1,-3,0,5,0,7
12,13,-10,0,0,0,4,1,7
5,5,8,1,-1,-1,10,-4,7
8,-3,12,2,-5,-3,-12,1,7
8,10,-27,1,-1,-5,-1,0,7
-32,-19,43,2,-3,-2,-12,0,7
-11,0,-58,-12,-2,0,0,-1,7
12,-2,-32,-7,1,1,-10,-2,7
4,6,24,3,0,2,14,0,7
11,7,18,3,-3,-10,-1,-3,7
11,15,26,5,1,1,8,-3,7
-18,-8,-1,-3,-1,4,9,-2,7
-11,-11,-18,-7,-3,-7,-22,-2,7
-11,-4,-6,2,1,-8,-17,-2,7
27,15,25,9,1,-3,2,-1,7
-21,-9,-37,-10,-2,14,19,0,7
4,-4,6,-7,-7,-11,-18,-1,7
-17,-12,-8,-1,2,-4,-3,2,7
8,6,45,7,3,-3,-3,3,7
-2,-13,-61,-8,1,10,18,0,7
-5,2,11,-1,-3,-5,-3,-1,7
0,-5,5,6,3,1,-3,-1,7
21,12,-14,-6,-3,1,-4,-1,7
-9,6,3,2,1,-7,4,-3,7
5,7,19,5,4,8,17,1,7
11,-5,-34,-10,-8,-7,-20,-6,7
-27,-5,12,2,-1,1,1,-7,7
4,-4,19,4,3,-1,-4,-6,7
8,3,7,0,3,3,14,-3,7
6,9,11,2,-2,7,16,0,7
3,-1,7,1,0,-8,-8,5,7
-1,-5,-47,-8,0,6,-1,-1,7
-18,-11,16,0,-5,1,13,1,7
8,8,17,-4,-2,-5,-16,4,7
-6,-14,-35,-5,-2,5,15,-2,7
20,8,33,10,0,-13,-3,1,7
5,11,-11,-1,1,9,6,2,7
-15,-27,-27,-5,-1,1,12,-4,7
-17,-7,2,-1,-2,-7,-1,-2,7
-4,0,19,4,0,6,4,3,7
7,8,16,8,4,-7,-19,-4,7
15,14,-12,-4,-1,-6,2,-1,7
-7,-11,-17,-3,-1,2,-9,3,7
24,6,29,-5,-6,-7,-8,-5,7
-42,-20,-49,-13,-3,-2,4,1,7
4,18,22,1,2,4,-5,1,7
18,-5,-9,2,1,10,11,-4,7
-2,-1,23,4,1,-2,-4,1,7
8,-9,-4,-3,2,0,-4,0,7
0,0,-7,1,-2,2,16,-3,7
1,6,13,3,2,3,-3,2,7
-4,5,35,2,-5,-3,-9,0,7
6,6,-26,-6,-1,-4,-5,-2,7
-9,-16,-85,-14,-4,-14,-7,-3,7
3,-9,6,0,0,2,-17,-3,7
7,8,0,1,-3,-19,-17,-1,7
-14,-8,18,6,2,13,14,2,7
27,13,26,1,0,13,5,-2,7
-1,7,19,4,0,12,15,1,7
-14,-2,-8,-11,-4,-13,1,0,7
-26,-24,-54,-16,-5,-2,-1,-5,7
-2,9,44,10,3,6,12,0,7
20,8,-8,0,0,-1,-9,-1,7
1,0,14,7,0,4,10,-6,7
11,2,32,-1,-3,-5,-6,-2,7
-19,-9,-8,-11,0,2,5,1,7
1,8,-16,4,1,-12,7,1,7
-6,-18,-29,-12,-5,-11,-9,-4,7
-22,-2,5,9,1,12,-15,-1,7
0,-4,1,-9,-2,-13,-15,3,7
-5,-1,27,0,-1,6,8,-1,7
9,4,-25,5,-1,-2,16,-1,7
22,6,-9,-6,1,4,-9,-2,7
-4,10,73,9,2,4,-1,2,7
-12,-2,-43,-3,-2,-12,-8,-3,7
-21,-17,-13,-4,3,8,11,3,7
14,-11,-34,0,-3,0,-1,-3,7
5,-5,8,2,0,1,4,2,7
-9,8,25,4,0,-1,-2,2,7
8,4,-5,-3,1,0,-10,0,7
7,16,33,3,0,-3,10,1,7
5,-1,-11,3,1,-2,-3,3,7
-23,-16,-19,-10,-8,-3,13,-1,7
-5,-3,7,-1,2,-1,-4,4,7
7,2,-12,-1,-1,-9,-29,-2,7
-1,-1,16,6,0,1,4,-5,7
7,7,21,7,1,2,-7,0,7
3,-21,-65,-22,-4,13,19,1,7
7,11,46,8,2,-5,10,0,7
-3,9,-13,-1,-2,3,3,0,7
-8,-22,-21,-3,-1,-1,-1,0,7
-32,4,5,1,-4,-11,1,0,7
-14,-15,-15,0,-4,-6,-25,-1,7
12,6,11,-1,-3,-10,1,-1,7
2,5,-7,2,0,1,0,-3,7
16,5,-19,-7,0,10,7,-1,7
-8,-7,-6,-1,1,5,16,-1,7
-5,1,-1,5,-1,-3,-3,-2,7
4,-4,5,-13,-8,-7,-5,1,7
11,4,-16,4,4,-2,-17,-3,7
-22,-2,34,-1,-2,8,16,0,7
-11,-15,-30,-5,-2,-5,4,-4,7
5,1,19,2,3,-7,-11,1,7
-5,6,12,8,-2,7,-4,0,7
9,2,-30,-9,-1,-5,16,-2,7
17,-2,24,5,5,8,0,2,7
-22,-8,-2,0,-5,-7,3,2,7
-4,2,-15,-8,0,5,-3,-1,7
10,4,9,-1,0,8,9,-1,7
-4,-11,-27,0,-5,-5,4,0,7
21,7,55,6,3,-3,-10,-2,7
-19,-9,-52,-5,-2,-2,-4,6,7
-18,-5,8,-1,-3,-14,-20,0,7
18,17,9,-1,-1,7,1,-5,7
-16,-18,-2,-5,-3,0,3,-4,7
5,-2,-31,2,-3,-3,-4,-1,7
9,1,-5,-1,0,2,-4,0,7
-7,-1,33,6,1,-12,-16,1,7
17,21,-15,3,4,20,5,1,7
-9,-15,15,-9,-6,-19,-10,-1,7
-8,-5,12,5,-3,7,19,2,7
5,-9,-23,-3,3,4,7,3,7
-12,1,11,1,-3,-11,-13,1,7
21,24,36,11,4,9,12,-3,7
0,-14,-49,-13,-5,-12,-1,2,7
-26,-1,-10,-4,0,-2,0,-3,7
11,0,-26,-4,0,16,8,-4,7
-1,1,47,6,0,-11,-10,-2,7
7,9,22,7,0,0,8,4,7
-4,-6,14,6,4,-3,-2,-1,7
16,20,-23,-4,-2,-10,-5,4,7
-18,-16,-18,-7,-5,10,9,4,7
-15,1,-11,10,4,5,-5,-4,7
-11,-10,-19,-10,-3,2,-6,-1,7
-4,-1,23,4,-4,-13,-5,-1,7
14,8,33,3,0,-1,-6,-2,7
12,9,3,7,5,2,9,3,7
-5,0,-4,-6,-2,-3,-3,-2,7
0,-5,-38,-9,-4,2,2,2,7
-10,-3,-7,-3,1,7,6,-1,7
-10,-5,36,4,0,-11,-4,-3,7
0,-7,-55,-4,-5,0,-12,-3,7
10,-3,13,-4,0,-1,8,-4,7
-2,-9,-37,1,0,2,1,-1,7
17,14,2,-4,0,-2,1,-3,7
-3,16,46,5,-1,-2,2,1,7
-7,-15,-35,-4,-2,-7,-15,-5,7
0,3,18,-2,2,9,7,1,7
-12,0,-11,1,-2,-5,-4,1,7
16,4,8,2,-2,1,3,3,7
-2,-1,41,5,2,8,7,4,7
11,4,-19,1,-2,-11,-10,1,7
-2,4,-2,-8,-2,-5,-8,-1,7
-2,-8,-6,-2,-2,5,-17,-4,7
-11,-2,22,1,-1,2,10,0,7
4,-1,-2,4,-1,-1,-3,-2,7
10,-7,-42,-11,-3,2,9,1,7
-9,-6,-10,4,-1,-6,1,2,7
6,6,4,0,4,-2,-5,-4,7
1,7,35,5,-1,7,4,-3,7
-13,-4,31,6,-1,1,-2,-2,7
0,-6,-68,-17,1,1,6,1,7
-6,-10,-5,-9,-7,-9,4,2,7
-21,1,-6,1,3,7,-4,3,7
2,-2,9,2,0,0,-2,-3,7
19,20,48,12,4,4,5,-1,7
-15,-7,9,-1,-5,-1,-3,3,7
-3,-14,-66,-14,-4,-13,-17,-1,7
1,0,7,6,2,4,-2,1,7
-11,-5,-7,-4,-1,-6,-1,0,7
6,2,2,-3,-1,8,10,1,7
6,4,45,10,2,1,-10,2,7
3,0,-28,-6,-1,-1,-4,2,7
-4,-2,15,2,-3,-1,5,-3,7
0,7,2,0,2,-6,1,-3,7
2,-7,5,1,0,3,5,1,7
38,2,9,-4,0,4,-5,1,7
-25,-2,-17,-2,-2,-2,-7,2,7
-19,-5,-4,3,1,-10,-7,3,7
-3,-1,9,4,1,1,7,-3,7
15,4,-8,-6,-3,3,7,0,7
0,-1,-4,-3,1,7,10,1,7
5,2,13,5,1,0,-5,-1,7
4,5,19,-2,-2,-9,-16,-4,7
-11,-1,-5,3,-3,-3,-6,2,7
8,-2,-37,-10,2,4,15,-3,7
0,-4,-8,-4,1,16,7,0,7
0,1,19,5,0,-5,5,-1,7
-5,2,13,4,-1,-5,-2,-3,7
5,11,39,3,-1,-12,-21,0,7
9,-8,-58,-2,-2,-3,-1,-3,7
-12,-5,1,-6,1,6,10,0,7
-12,-5,-3,-6,-1,-2,2,-5,7
6,2,30,7,3,11,11,-1,7
14,2,4,9,3,-6,-2,-2,7
-5,15,7,-12,-6,-1,-17,1,7
-26,-13,-14,-6,-2,1,8,1,7
9,-4,-18,3,0,1,6,0,7
8,-3,3,-1,1,8,11,-2,7
10,9,33,17,4,-2,3,-2,7
16,11,0,-14,-2,3,-3,-3,7
-14,-8,-29,-6,-4,-7,-5,-1,7
-4,0,4,-6,-6,-5,-5,1,7
11,-5,-12,-6,-7,-5,5,-4,7
-12,-4,6,7,4,-2,-3,0,7
6,1,16,8,1,8,4,0,7
-4,3,4,-2,1,6,6,1,7
-7,-5,-15,-7,-1,-21,-15,4,7
11,0,-1,0,1,4,-12,1,7
8,1,16,0,-1,-4,5,-1,7
-25,3,26,2,-5,-12,-12,3,7
1,-5,-23,-5,3,23,12,1,7
-7,-5,-3,2,-2,-7,0,0,7
5,2,2,0,-1,-6,-14,-3,7
4,-4,-3,2,0,6,2,-3,7
-4,0,27,6,3,8,14,-1,7
6,2,-20,-14,-8,-20,-18,-3,7
-8,-11,-13,0,-2,2,-2,2,7
0,-7,-7,-4,0,9,-9,-4,7
10,13,8,3,3,-2,2,2,7
-4,-3,9,2,-1,6,16,-4,7
-6,5,5,4,-1,1,4,2,7
9,0,-2,-6,0,-3,2,-3,7
-5,-6,-6,1,-3,-8,-7,-4,7
3,13,45,10,4,7,-1,-3,7
-9,-12,-63,-10,-3,-6,-2,1,7
0,1,0,-3,-3,-7,-3,4,7
-6,-5,-2,-5,-1,11,7,-1,7
3,-2,-16,4,1,-11,-2,0,7
11,9,56,4,1,1,-2,-3,7
4,-5,-32,-8,-2,-1,2,-2,7
-13,-3,12,-3,-1,-2,6,-2,7
-9,-14,-22,4,2,7,2,2,7
0,6,-3,5,5,7,11,-1,7
1,-11,-11,-14,-7,-23,-31,-1,7
3,-5,-10,-5,-1,7,5,1,7
-5,-6,-8,-1,2,14,14,-2,7
4,8,64,12,-1,-7,-1,-3,7
-7,1,-58,-10,-2,-1,5,1,7
-7,-8,-16,-2,1,-3,-4,-1,7
5,0,-9,0,-1,-8,-7,0,7
3,-2,4,-8,-3,3,-3,-1,7
7,3,26,14,4,3,6,2,7
-12,-7,-14,-6,-4,-10,-22,1,7
-13,1,-4,-1,-4,10,12,4,7
-3,-6,5,2,2,-2,-6,-1,7
-2,7,12,3,1,9,12,2,7
12,2,-22,-2,1,-9,2,1,7
10,3,17,1,-1,-2,-17,5,7
0,-8,-24,-10,-2,5,1,-1,7
-6,-1,13,5,3,2,-3,1,7
12,2,9,7,1,4,14,-6,7
-2,4,-1,-2,-1,2,8,-1,7
-21,-10,27,-7,-2,-13,-9,4,7
-2,13,-51,3,0,2,-17,-3,7
1,-4,-30,-10,-3,-7,-4,0,7
14,1,34,3,2,-4,2,-5,7
-2,-2,-46,0,-1,5,7,-1,7
-8,3,38,4,-1,-7,3,-3,7
2,3,21,9,1,3,-4,-4,7
12,1,-15,-2,-2,-5,-8,1,7
-1,1,-17,-5,1,-1,0,5,7
-4,3,14,2,-1,-10,-16,3,7
18,3,3,-1,1,-1,1,3,7
-16,-4,-2,-6,-6,-5,-6,-1,7
-20,1,5,2,1,7,-1,-2,7
3,-2,-10,-2,-1,-5,-8,2,7
4,-6,34,1,2,8,2,-3,7
1,5,-36,-1,-1,-9,-9,-1,7
2,-1,-23,-9,-4,-5,3,-5,7
-10,-4,44,1,-3,4,12,-4,7
12,4,-55,3,-1,-7,-10,-2,7
-2,-13,-17,-15,0,3,9,-2,7
-23,-19,-5,-1,-3,-6,-9,-1,7
13,17,29,8,1,9,12,3,7
8,6,-9,-4,-3,-14,-17,0,7
3,-5,5,5,3,9,19,2,7
2,-7,-3,-3,0,-8,-13,1,7
9,-3,14,-2,0,-5,0,2,7
-15,4,21,3,-1,13,12,2,7
-5,-7,-4,-2,-6,-16,-16,-3,7
7,-5,-20,-8,-1,5,-2,-4,7
-9,-3,-4,0,3,-3,-2,-1,7
-7,-8,-5,-6,-3,6,10,1,7
3,7,9,2,-2,-3,0,0,7
12,6,36,10,2,5,0,-2,7
0,-1,-27,-4,-3,-8,-12,-1,7
-13,-5,-31,-6,-5,0,5,-4,7
-1,-3,32,4,3,-2,-3,-2,7
14,6,-13,-3,0,0,3,-2,7
-3,-5,1,-2,-1,9,6,-4,7
0,2,10,4,2,2,6,2,7
1,13,12,7,0,-6,0,-4,7
-1,0,-19,-5,0,-2,-1,-2,7
-5,-13,-19,0,0,7,12,-1,7
-8,2,10,-5,-1,-5,-8,2,7
-4,1,4,-3,-3,4,-9,-3,7
4,3,-3,-1,-5,-5,1,2,7
-2,-6,-1,2,-1,0,-4,-1,7
13,11,6,3,5,4,8,-4,7
-9,-7,18,-1,1,4,2,0,7
5,5,-3,6,1,2,1,1,7
-25,-3,12,-4,-3,-12,-4,-4,7
-2,-5,8,-1,-5,6,-20,-1,7
6,0,-11,-4,3,-5,1,-5,7
1,-4,-11,4,0,-1,1,-3,7
6,2,-10,-2,0,7,7,-1,7
3,0,14,1,0,-9,11,1,7
-1,-1,5,4,-1,-7,-29,0,7
18,1,4,-2,-2,7,9,-5,7
-23,7,-38,-4,1,2,-9,-1,7
2,-18,14,-6,-5,1,17,1,7
-6,-6,8,4,-3,-2,-3,2,7
-4,-1,-6,-4,-2,-1,5,6,7
10,2,4,6,2,-1,-16,-2,7
-7,5,24,-2,-2,-7,-11,0,7
10,-1,-41,-1,3,8,11,1,7
-8,-6,12,2,-4,-15,-9,-3,7
0,-3,18,-2,-1,4,0,2,7
1,2,-23,3,1,0,-11,-3,7
2,-2,21,3,2,3,7,1,7
-14,0,-13,-5,-4,-4,-11,3,7
13,-3,1,-3,3,4,9,-4,7
-3,1,1,-1,0,-4,-3,4,7
-5,-6,-18,-7,-4,10,14,1,7
-4,2,11,6,5,-1,-6,-6,7
6,17,15,2,0,-4,2,-1,7
6,-4,-11,-5,-3,-4,-6,0,7
-8,-8,-28,-7,-7,-7,-2,0,7
-5,-6,12,-1,-1,-2,6,1,7
8,-4,-5,-2,-2,13,0,3,7
-12,5,-8,3,2,-3,-1,0,7
5,5,-29,-4,3,0,8,0,7
3,-8,6,0,-2,-2,-19,1,7
-10,-8,-1,-3,0,-1,18,2,7
-3,-3,11,3,-2,-5,0,-3,7
1,-1,42,12,4,2,-10,-3,7
-2,-5,-51,-22,-1,5,10,5,7
15,13,10,1,0,-3,-9,-6,7
-4,-12,2,6,0,10,6,-2,7
-3,11,23,-4,-3,-2,-2,-1,7
-6,5,8,1,-4,-4,0,-4,7
-19,-29,-40,-11,-2,0,4,2,7
5,3,51,5,0,-2,5,2,7
12,7,-36,8,0,-6,-12,1,7
-22,-4,22,-6,-5,1,11,-4,7
10,-7,-40,-9,-3,-7,-11,-1,7
0,7,22,7,2,8,4,-4,7
-3,-2,-1,-1,-1,3,12,-1,7
9,8,6,3,1,0,0,0,7
-3,0,5,2,0,-10,2,0,7
0,-2,1,-3,2,7,-9,-1,7
6,-6,-8,-6,-5,-7,6,-3,7
-3,-3,2,5,3,-3,-15,-4,7
-1,5,10,1,0,-1,-7,-1,7
7,-11,-20,-7,-6,-14,-6,-1,7
-14,-6,-9,-2,2,7,12,0,7
12,5,29,8,0,3,3,1,7
-8,-6,-12,-7,-4,-5,-2,0,7
-10,-3,-70,-7,1,4,9,1,7
7,-1,7,0,2,-1,-4,-1,7
0,-5,43,4,-3,0,0,0,7
5,5,-3,3,-2,-1,0,-2,7
-4,5,-15,-10,-4,-7,-3,3,7
7,-7,-9,-3,-5,-5,6,3,7
3,5,4,3,0,5,7,-1,7
5,3,7,8,5,3,-2,2,7
-11,-4,-6,-1,-2,-3,0,-3,7
-1,0,-5,-6,-3,6,16,-1,7
7,0,3,-1,-2,-2,-1,1,7
1,-1,11,4,-2,-9,-6,-4,7
-8,-4,-32,-7,-3,-1,-6,2,7
1,1,18,2,2,-3,-5,4,7
5,6,-23,1,0,0,4,1,7
-13,-2,14,-2,0,20,12,-1,7
7,0,15,6,4,0,-1,0,7
1,5,14,2,1,-6,-14,3,7
4,5,-19,-3,-3,-4,5,0,7
-2,-5,-11,4,2,4,1,3,7
9,1,29,0,-2,-3,8,-2,7
-10,-11,-38,-6,1,1,0,-2,7
-13,-5,-11,-7,-6,-14,-40,1,7
15,-1,-8,-1,0,0,5,0,7
1,0,-5,-2,-5,-4,4,-2,7
7,2,57,2,0,13,12,0,7
5,8,-36,6,2,-3,8,1,7
-3,-4,18,-8,-10,-3,-6,0,7
-8,-8,5,2,1,-4,-10,-1,7
7,17,12,6,4,-3,-7,-2,7
-13,-11,13,-8,-4,-1,1,1,7
-2,1,-34,-2,-1,-2,3,2,7
3,-2,21,3,0,1,2,-1,7
3,6,-13,0,0,-2,5,-2,7
5,-4,24,7,2,-11,-34,-1,7
-10,6,7,-2,0,3,5,-1,7
-2,-10,-44,-10,-5,-4,-4,-4,7
3,1,-15,1,-3,4,7,0,7
-3,-3,6,-1,3,9,14,-4,7
4,4,37,11,4,-7,-14,-2,7
-5,11,8,-6,2,-1,-4,-1,7
-16,-8,-37,-5,-3,3,1,2,7
8,7,-1,0,0,-2,4,0,7
1,1,21,1,-1,-7,2,0,7
3,-6,-10,2,1,2,5,2,7
9,12,38,5,1,-13,-16,2,7
-8,-1,-14,-7,-5,18,19,1,7
-10,-8,-20,0,3,-2,6,-3,7
10,5,-12,1,-3,-2,6,1,7
-1,-8,-5,1,-1,-1,-3,-5,7
11,-1,0,-3,-1,12,3,5,7
-1,3,23,2,-1,-9,-8,2,7
-2,0,10,7,2,-1,-7,-1,7
-5,0,5,-12,-2,-5,-1,-3,7
3,1,-17,1,-3,1,9,-3,7
3,-8,-10,-5,-7,-1,-6,1,7
-1,3,8,4,1,2,-6,-1,7
-9,-2,9,5,-3,0,-2,-3,7
-9,2,22,8,4,-2,4,-2,7
13,1,-34,-16,-2,-3,-14,4,7
13,10,-12,-5,1,5,8,2,7
-2,-14,-3,6,-2,-10,3,0,7
-10,0,-13,-11,-2,-7,-15,-5,7
12,-1,-3,12,4,15,4,1,7
-16,5,37,7,4,-7,-11,0,7
2,-10,-37,-18,-5,15,18,-3,7
-12,-7,-30,-4,-6,-22,-23,1,7
-5,-2,-3,4,3,18,16,-5,7
8,-4,20,1,-3,-1,-1,-3,7
7,6,-15,3,0,-2,-10,1,7
2,0,-1,6,2,2,8,-3,7
-5,-4,0,-12,-5,-15,-5,-2,7
4,-1,-13,1,0,8,9,0,7
-11,-3,-9,-1,-3,5,-2,0,7
5,-2,11,-2,1,3,13,1,7
6,6,3,3,-2,-4,-1,-6,7
-10,-3,1,-6,-3,-3,-1,-1,7
3,-2,7,-4,-4,-13,-12,-2,7
-4,0,11,3,0,-1,-3,-3,7
6,-6,-36,0,1,7,-11,-1,7
-36,-13,-4,-6,-5,-9,-3,-4,7
13,4,19,0,0,6,0,-3,7
10,2,13,5,2,2,11,-1,7
-11,6,31,5,-1,-3,4,-1,7
3,-6,-59,-3,-2,1,-19,-4,7
-5,-12,-17,-15,-2,0,8,-2,7
9,2,1,2,-4,-15,-22,0,7
2,4,28,2,1,5,11,-4,7
1,7,34,7,1,4,6,3,7
-13,-13,-43,-10,0,1,1,-2,7
17,3,3,2,1,3,5,-2,7
0,4,3,-1,-3,-7,-19,-3,7
-3,-3,19,5,3,12,21,-1,7
-17,10,22,11,5,9,-9,2,7
-5,-3,5,-3,-1,-4,7,-1,7
5,-1,16,-4,-1,0,3,-1,7
5,-6,-34,-2,-2,-9,-16,1,7
13,5,30,10,1,3,8,2,7
-15,-7,-51,-21,-5,2,-6,1,7
8,2,37,8,1,5,14,1,7
11,1,-30,-7,-3,1,7,-3,7
-3,4,26,2,-3,-11,-8,-3,7
-11,-16,-6,2,0,6,3,-4,7
-10,-8,-44,-5,2,-6,-5,-1,7
-3,1,34,7,-6,-1,2,2,7
16,15,7,3,1,6,-3,-2,7
13,2,0,-4,0,-3,4,1,7
-1,-6,-52,-2,-4,-6,1,4,7
-11,-8,19,1,3,0,-6,0,7
0,5,-10,-4,-2,-5,-14,2,7
-1,4,17,6,-1,5,9,0,7
4,-3,7,-3,2,9,20,-2,7
6,3,-3,-1,0,-7,-35,-2,7
-7,-12,4,1,-3,-5,-5,-2,7
1,2,13,1,2,6,-3,-2,7
5,7,15,-1,-3,0,3,0,7
2,-2,-62,-9,0,3,18,-3,7
-34,-22,2,-7,-2,-1,3,-2,7
6,-1,3,13,3,3,5,-4,7
-1,11,50,-6,-1,-5,-7,-3,7
8,6,-44,-4,-4,-10,-18,2,7
14,3,24,3,1,0,3,-4,7
11,-3,-14,-3,-4,2,11,0,7
-24,-15,5,-2,-2,-1,-5,4,7
0,6,27,1,0,-4,-1,-3,7
-1,-4,-18,1,2,2,-1,0,7
-21,0,6,4,2,-3,-18,2,7
12,2,-8,-1,-1,1,3,-2,7
-4,-1,0,-8,0,12,12,3,7
-5,3,-4,0,-3,-1,8,0,7
6,3,4,2,2,-4,-3,-4,7
-11,-2,6,0,-3,-4,-18,-2,7
4,-2,3,1,2,-4,5,-3,7
0,-7,-14,-9,-4,5,5,2,7
1,6,8,-3,1,8,9,0,7
-4,2,20,2,-2,-15,-8,0,7
18,3,14,16,3,5,-5,-6,7
5,-2,-36,-17,-3,-4,-3,-3,7
-6,-8,7,2,-3,1,2,-1,7
-13,0,-25,-4,1,4,15,0,7
11,4,21,-4,-6,-11,-15,0,7
-18,-7,2,1,2,11,-11,0,7
6,1,3,-4,-3,-8,-3,2,7
7,2,-28,2,0,0,1,-4,7
-6,-4,-11,-2,1,-3,14,0,7
-11,-10,-8,4,1,-2,5,0,7
0,0,10,-5,-2,-10,-19,1,7
2,-3,9,2,-3,3,4,1,7
5,8,-1,-3,3,3,-5,-1,7
3,-9,-32,0,-1,0,4,-1,7
-7,2,21,-4,0,8,9,-6,7
1,-2,-11,1,5,5,14,-2,7
3,4,9,-1,-5,5,3,-2,7
-2,-11,-8,-8,-4,-9,-7,1,7
-13,-7,-23,5,-1,-1,-4,-1,7
6,2,20,-5,-1,-3,1,2,7
-11,-5,16,-12,-1,12,18,0,7
9,8,3,12,5,-7,-6,0,7
-2,-5,-38,-12,-6,-5,-10,2,7
-8,-2,15,8,-2,-5,-7,-5,7
10,-11,2,-3,-1,4,9,-2,7
-10,5,26,4,-2,1,7,-4,7
-7,-4,-12,-2,-3,-5,-2,-4,7
12,3,11,-6,-3,1,-2,2,7
2,-12,-39,-1,0,0,4,2,7
2,4,14,1,-2,-4,-2,2,7
-1,0,9,3,3,-3,6,2,7
6,-2,-16,-1,4,17,5,0,7
3,3,10,0,-6,-13,-38,-3,7
-1,-1,-21,-2,0,-11,2,1,7
12,4,23,3,-1,3,-18,-1,7
-9,-12,-28,-8,-6,-11,7,1,7
-28,-7,0,6,-1,-5,1,-2,7
8,14,51,8,3,4,2,-2,7
-5,-8,-47,-5,2,11,8,-3,7
11,1,15,-10,-5,-7,-15,-1,7
-2,-8,-45,-5,0,3,12,0,7
4,12,19,6,-1,-12,-4,-1,7
7,0,21,8,2,0,-1,1,7
-11,-3,0,-11,0,-6,-23,0,7
-27,-6,-10,5,-1,3,13,0,7
14,7,-13,-11,0,6,5,3,7
4,2,5,2,-2,-2,-5,-4,7
-3,-1,0,8,0,0,4,-2,7
1,7,23,4,3,1,0,-2,7
22,-3,13,-5,-2,3,-2,0,7
-19,2,-14,-1,-2,-7,-7,1,7
-14,-13,-39,-2,-3,0,3,-3,7
1,5,30,2,4,3,3,4,7
0,1,-3,5,-3,-5,-10,-3,7
18,8,52,0,1,5,17,-1,7
-1,7,-28,4,6,21,6,-4,7
5,-3,3,-4,2,-14,-11,-2,7
-20,0,27,-5,-1,1,-4,-3,7
-6,-11,-29,-3,-5,-14,-10,4,7
11,6,15,7,1,-4,-1,-1,7
3,11,20,0,-3,10,19,-4,7
2,-12,-17,-2,-3,2,-6,-1,7
-17,-3,-17,-8,-2,6,11,-4,7
-6,-11,6,7,1,1,5,1,7
14,3,-9,-3,3,-9,-12,5,7
-13,-3,-15,-2,1,3,2,-4,7
8,2,16,-3,-1,5,4,3,7
-10,-6,-22,-3,-4,-7,-3,-2,7
4,2,24,3,-2,-1,-1,-3,7
8,3,5,5,3,-1,-1,-1,7
-2,7,-6,5,-1,3,4,-3,7
3,-5,-41,-12,-5,-5,-15,-2,7
-9,-10,-2,-6,-5,-3,2,-2,7
1,3,2,3,-1,1,-5,-1,7
-4,-11,-10,5,5,-2,-6,3,7
17,14,27,-2,-4,0,5,1,7
-1,-5,-13,-2,-1,4,11,-2,7
-4,0,-22,-4,-3,-10,-23,-3,7
7,9,16,8,5,5,11,-3,7
-1,-6,13,-7,-7,-10,-23,0,7
-27,-3,-19,2,0,-2,-11,-5,7
-4,-22,-27,-12,-4,-5,11,-1,7
3,7,13,5,3,6,1,-5,7
-2,4,6,-3,0,8,15,-4,7
7,3,1,5,-1,-5,-11,-2,7
3,-2,17,2,0,5,9,2,7
6,6,-25,-8,-2,-8,-3,-4,7
-1,-4,4,3,-1,-7,0,-2,7
-4,2,-4,2,4,19,23,-2,7
-10,0,1,0,-7,-19,-15,0,7
10,-3,0,-2,-4,-1,-11,2,7
-11,-5,-22,-2,1,3,-5,-2,7
9,-5,6,-4,-2,-8,5,-1,7
2,8,5,5,3,7,8,-1,7
-11,-3,1,-16,-6,-2,6,-4,7
4,-1,-17,9,0,-10,-4,3,7
2,-1,26,1,-2,-1,-14,-2,7
7,1,12,9,2,7,14,-1,7
10,-3,-24,-6,0,-1,-5,1,7
-26,-10,11,-1,-1,1,-5,-2,7
5,-7,-5,-2,-1,6,14,1,7
4,1,2,-3,-3,-11,-19,0,7
-9,-5,9,3,-1,-4,7,4,7
15,7,36,6,3,6,16,0,7
-13,-1,-18,2,0,4,-8,-3,7
10,6,-14,-4,0,-3,0,0,7
-18,-9,1,-4,-6,-6,-1,1,7
3,-2,11,-1,0,-6,1,6,7
3,8,23,2,2,3,-5,2,7
8,2,-12,-3,1,7,11,2,7
-4,-3,-16,-7,-3,-11,-11,-1,7
3,8,6,7,0,-7,-1,-2,7
2,4,7,-8,-2,-5,8,0,7
-8,-10,-36,0,3,25,16,-3,7
4,-3,2,0,1,-1,2,0,7
-3,3,8,2,0,1,-1,-1,7
4,-5,-3,-3,-5,-11,-13,4,7
8,2,10,-5,-1,4,3,-1,7
-3,11,3,3,-2,6,9,-3,7
-6,-16,-58,-7,2,-1,0,-4,7
5,-5,0,2,2,-4,-7,-1,7
-27,0,13,-2,-1,-5,4,-4,7
-5,0,23,6,1,6,-2,-4,7
-6,1,11,3,1,2,-1,-1,7
11,12,7,8,-3,-2,7,2,7
-10,-11,-6,-1,-2,-1,-2,-1,7
17,-2,-52,-8,0,1,-11,-3,7
1,3,9,-3,-1,1,2,-2,7
2,-2,15,0,-1,-3,6,0,7
1,8,4,3,0,-18,-27,1,7
1,2,23,2,-6,1,-3,0,7
2,-4,-12,-5,2,14,3,-4,7
-8,-4,-7,-3,0,2,-3,2,7
1,0,-7,-2,0,2,7,-1,7
-1,-3,7,1,1,-9,-2,-2,7
2,3,5,1,-2,-10,-11,-1,7
-5,0,12,1,-1,4,3,-1,7
-11,-7,-21,-3,-2,-2,-1,3,7
-1,-3,24,8,2,13,7,3,7
15,3,-25,-7,1,0,-2,4,7
-3,2,19,-4,-4,3,4,-2,7
0,-1,-34,8,1,0,0,-2,7
-14,-14,43,-2,-3,-1,3,-4,7
11,12,-30,-2,1,4,14,3,7
4,7,24,0,0,-6,-15,0,7
-6,-14,-40,-8,-4,-5,-1,-2,7
12,13,16,-1,1,1,4,4,7
-30,-13,-15,0,-1,5,7,-2,7
11,12,35,3,-1,-9,-1,0,7
15,10,-25,-4,2,14,-2,-2,7
19,3,-17,-3,0,-13,-5,-1,7
-8,-2,20,-4,-3,-4,-3,-1,7
-10,-9,-24,-1,1,12,13,-3,7
1,5,61,5,2,-6,-7,1,7
-15,-6,-36,1,-3,-9,4,-2,7
5,-3,7,2,-2,3,-14,4,7
-3,-8,-15,-4,-3,1,8,-1,7
4,1,20,2,-1,0,4,2,7
2,-2,-14,-5,2,-4,-7,-3,7
1,2,17,1,-1,3,-8,-4,7
-6,-8,-16,-2,-3,-7,-7,-2,7
5,5,34,1,-3,1,4,3,7
-6,4,-30,6,1,-4,-11,0,7
-5,-7,-7,-13,-3,-5,7,-1,7
11,3,-8,-1,0,-2,-10,-3,7
9,4,30,-1,-2,-6,6,-3,7
-3,7,-13,5,1,6,9,0,7
-19,-23,-9,-2,1,-5,-5,-3,7
1,-3,-48,-8,-3,0,-2,-3,7
11,-1,12,4,-1,3,4,-2,7
-13,-11,24,3,1,2,-5,0,7
-6,6,6,6,-4,-6,-5,1,7
5,-2,-12,-8,-1,5,7,3,7
-8,-8,-3,3,3,2,4,-4,7
16,-5,-3,-7,-3,6,-2,1,7
9,4,5,7,-1,-14,-6,-2,7
-12,-2,14,1,1,4,17,1,7
9,4,-13,-4,0,7,-30,-5,7
-5,2,9,-2,0,-3,16,0,7
-4,-10,-32,-6,-3,-7,-11,-3,7
1,-1,-1,1,1,-1,9,-1,7
5,6,-11,-4,1,13,12,-1,7
-18,-4,6,-2,-2,-8,5,1,7
5,2,27,6,-1,1,-24,1,7
8,1,35,1,0,-7,-12,2,7
-23,-12,-90,-21,-4,-6,7,1,7
2,3,21,-2,-6,-3,-8,-2,7
15,12,-1,4,3,2,17,0,7
-20,-5,-19,2,1,-1,-8,3,7
-9,-2,30,3,-1,-4,-7,1,7
-1,1,-2,3,1,3,5,-2,7
13,2,6,-2,-2,-2,-5,-1,7
4,1,-5,3,2,4,-6,-4,7
10,-1,9,2,0,-6,0,3,7
7,4,-19,-4,-2,-6,1,-2,7
-16,2,68,2,1,5,5,0,7
-3,-8,-66,0,-3,-5,-8,0,7
-3,2,9,6,-2,-8,1,-1,7
16,-6,0,-13,-3,4,7,0,7
-11,4,-15,-3,-2,4,-5,-1,7
24,6,0,-7,-4,-3,7,0,7
-22,-11,26,4,-1,-8,-7,-3,7
-13,-14,-14,5,-2,-2,-21,-1,7
5,-3,3,5,2,2,16,4,7
-9,-2,10,-3,-2,-5,-5,-4,7
12,5,-12,-4,1,5,7,0,7
11,8,26,1,-1,6,14,-1,7
-16,-7,-10,-3,-3,-4,-13,-4,7
-3,-4,54,8,0,-5,-8,3,7
4,14,-24,4,0,1,8,-3,7
-4,-3,-33,-1,3,0,-9,-4,7
11,1,-21,-6,-1,6,13,0,7
-2,5,9,0,-1,-7,-2,-4,7
-5,6,36,3,-1,-4,-16,-4,7
-2,-4,-2,-2,-1,-2,-6,2,7
2,-2,-14,-3,-1,7,20,-3,7
-10,2,3,-4,1,0,-18,2,7
3,-7,12,4,-4,-15,-8,-2,7
3,-1,-35,-4,-3,0,8,0,7
7,0,6,1,0,3,-4,0,7
-7,4,4,3,1,1,10,-1,7
2,-11,-19,-1,0,2,3,0,7
11,1,10,-6,-2,-1,1,2,7
0,-7,-26,-8,-6,-11,-4,0,7
-6,-4,-4,0,-2,3,6,1,7
-5,-1,18,1,5,14,10,1,7
-4,7,13,10,3,2,-1,-1,7
5,-3,-15,-6,-4,-6,5,0,7
11,4,9,-1,0,-2,-3,-3,7
11,-4,-32,-10,-7,-16,-5,2,7
-21,-5,13,5,3,11,8,-1,7
11,9,32,7,2,-4,-14,3,7
-35,-17,-21,-2,-3,-1,-10,1,7
27,10,13,3,1,0,-3,1,7
-9,-6,-33,-9,-5,-3,-3,-2,7
7,2,-1,1,0,-3,12,-2,7
10,2,9,-1,0,0,10,-1,7
-12,-5,3,1,2,12,6,3,7
-4,-2,12,1,-1,-8,-5,4,7
-5,-3,-4,2,3,8,5,-6,7
9,0,-2,3,1,-9,2,-2,7
-12,4,-3,-6,-1,0,-9,-1,7
4,2,23,1,1,1,2,0,7
10,6,39,1,-1,2,4,0,7
-2,3,-15,2,1,3,7,-3,7
-21,-21,-57,-16,-7,-4,-1,-2,7
14,5,32,10,3,3,-1,0,7
-5,4,-3,-1,-1,-3,-1,4,7
25,18,32,9,0,2,-6,3,7
-23,-13,-31,-6,-1,-1,2,0,7
4,2,17,-3,-1,1,-3,4,7
-13,-5,-30,-1,-2,-2,4,0,7
-5,-10,-6,-1,-3,-3,-1,2,7
7,12,24,3,2,5,1,-6,7
5,2,-17,-4,-4,-7,-7,-3,7
4,5,14,1,3,8,4,0,7
-9,-5,-20,-10,-4,-4,8,-1,7
1,0,11,1,-3,-13,-24,-1,7
1,-1,-7,-2,-2,5,6,-1,7
-4,1,7,5,0,13,2,4,7
-2,1,25,2,-2,-3,7,-3,7
3,-5,-24,-1,2,2,6,-4,7
15,5,4,-7,-1,-1,-3,0,7
-18,-19,-31,-4,-2,-16,-25,0,7
0,-6,1,-3,-2,9,9,1,7
-10,2,53,8,-2,0,1,7,7
0,2,-12,5,2,1,-10,1,7
9,-4,9,-3,-2,-4,3,-2,7
1,-2,-36,-6,-1,1,-13,0,7
13,4,4,0,1,1,9,-2,7
-5,0,4,2,-1,3,7,0,7
21,5,7,-2,2,-4,3,0,7
-28,-3,7,-1,-4,-9,-15,-1,7
6,-8,-8,-5,-1,12,15,-1,7
-12,-3,-1,3,3,1,2,2,7
17,3,0,2,-2,-12,-5,1,7
-3,-2,23,-5,-3,9,8,2,7
2,5,-25,1,0,-11,2,2,7
-8,-5,9,1,2,8,5,0,7
-10,2,3,1,-3,-10,-8,-3,7
19,3,5,1,2,1,4,1,7
-24,-2,3,-1,-4,2,0,3,7
6,-2,8,1,-2,0,8,0,7
-15,-7,-64,-18,-5,-9,-19,4,7
2,-2,0,6,3,15,9,1,7
7,5,28,8,3,-9,-7,-1,7
-4,-1,-16,-9,-4,-8,-18,-4,7
5,-1,12,-4,-3,11,16,4,7
-8,-2,-15,-5,-1,-7,1,-1,7
2,-3,9,7,2,6,4,0,7
10,2,18,6,0,-6,-2,-5,7
-6,-2,-16,-5,0,5,1,-4,7
-2,-6,-74,-7,-3,2,-2,1,7
-13,-8,-1,-4,-4,-7,-9,-1,7
3,2,-4,0,0,1,1,3,7
-4,-4,31,5,3,0,8,-5,7
10,1,18,2,-3,-17,-27,-2,7
0,1,-14,-1,1,12,1,-2,7
-2,16,-6,-4,-4,-8,-4,0,7
4,-6,17,5,1,8,15,-3,7
-7,-6,-17,-4,-2,-6,-3,1,7
9,4,23,6,1,-9,-9,-2,7
-8,-9,-8,-2,0,11,15,-1,7
-2,8,-34,-6,-4,-3,-7,5,7
6,0,9,3,2,1,8,-1,7
8,0,13,-2,-5,-5,-13,0,7
-2,-2,-6,4,4,-3,-5,0,7
-6,2,2,-4,-1,0,-4,-4,7
-7,-2,-4,-8,-3,0,-6,-4,7
-2,1,18,-3,-2,4,11,1,7
-7,-6,-16,2,-2,-11,-9,0,7
0,2,-11,1,2,0,-3,1,7
10,3,-1,-1,3,10,-3,1,7
-16,1,28,2,-4,1,4,-5,7
13,7,-15,-5,0,-3,1,-4,7
-2,2,33,-2,-5,-14,-2,-3,7
2,-8,-30,-3,1,3,-19,-2,7
6,7,0,0,-2,-5,11,1,7
-2,-3,1,4,1,0,-4,2,7
3,5,-7,2,0,-4,-2,-3,7
-2,1,24,2,-3,6,8,-4,7
-5,-5,-14,-5,0,-2,0,-1,7
2,1,10,-1,-3,-5,-26,0,7
-1,0,2,2,2,5,1,-1,7
9,8,47,6,0,-5,6,1,7
-2,1,-54,0,2,4,1,1,7
-10,-20,-3,-7,-4,-6,-2,-1,7
-4,-2,-6,-4,-5,2,0,0,7
-6,-2,-5,-7,-2,-4,-2,0,7
14,2,22,9,0,3,-5,-4,7
28,19,25,7,2,4,8,-7,7
-37,-13,-18,-8,-2,5,1,-1,7
-10,-1,24,5,0,-4,0,-1,7
-5,-1,-22,-10,-2,-1,-2,2,7
0,-14,-19,1,3,9,8,-3,7
9,9,19,2,-3,-8,5,-3,7
9,2,-17,2,3,2,-10,-1,7
-13,-15,1,-3,-2,-1,5,-2,7
-11,3,-13,-7,-5,-7,-11,3,7
1,0,-4,2,2,5,-9,0,7
1,0,2,-1,-1,-2,10,-3,7
11,5,7,5,2,-5,-2,-1,7
-10,1,37,0,-1,8,9,3,7
9,-2,-33,3,2,3,3,-4,7
2,-9,-27,-9,-4,-10,-19,-3,7
-6,1,-12,-3,-1,0,0,3,7
-13,-13,7,-3,-2,-4,14,-4,7
2,7,-1,6,2,11,0,-1,7
3,2,23,5,2,2,15,1,7
16,6,-13,-4,-2,-5,-18,-3,7
-7,0,-18,-5,-3,-21,-29,1,7
-11,-14,7,1,-2,-3,4,2,7
-8,-5,-6,2,-1,5,7,-2,7
6,4,-5,2,1,3,6,-1,7
17,5,-12,-3,-3,3,4,-6,7
1,-3,34,7,4,0,-2,1,7
-10,2,-13,-3,-1,0,4,2,7
4,-4,-11,-4,-1,-6,-3,-3,7
-5,-1,12,6,6,14,7,0,7
11,-2,0,-1,-3,-4,-1,-2,7
3,6,32,1,2,-5,1,2,7
-4,-1,8,2,0,2,0,-5,7
-1,5,-35,-3,-2,8,13,0,7
-8,-10,-3,-3,-1,-6,-3,3,7
-1,4,15,-3,0,-10,-12,2,7
-2,-7,-18,-10,-6,0,13,2,7
-7,-7,6,-2,-2,-2,-23,2,7
5,7,11,7,4,9,14,-2,7
1,-3,-12,2,-1,3,3,-2,7
7,9,10,-2,4,1,1,2,7
2,-4,4,-5,-5,-4,3,1,7
0,2,12,0,-1,-4,-14,-2,7
-9,-5,-15,-5,-3,-2,-2,1,7
-6,-10,-27,-8,-3,0,3,-1,7
-19,-15,-12,-1,1,-1,7,-1,7
22,14,-8,-4,-1,-4,-5,-2,7
-4,9,22,11,3,0,5,-2,7
-2,-9,26,0,2,9,-2,0,7
-26,-5,-15,-2,-3,-6,-5,-3,7
7,-2,1,-6,-1,2,8,2,7
-2,0,-16,-5,-1,7,7,-1,7
7,6,20,8,-2,-20,-19,1,7
7,2,7,2,-1,-15,-31,1,7
-2,5,-2,3,2,13,2,1,7
6,-4,-11,-4,-3,1,1,0,7
-18,-8,-5,-9,-1,4,12,1,7
11,-4,-26,1,0,-1,7,3,7
-18,-7,1,-2,-2,-11,-5,0,7
5,-1,-8,-1,1,13,0,-1,7
3,3,16,7,-1,-1,-1,1,7
9,8,15,0,-2,1,10,-3,7
0,-3,11,1,0,-2,10,2,7
14,0,-49,1,-3,-12,-36,-1,7
-17,-7,1,-7,-5,-4,5,-4,7
-11,3,0,1,0,10,14,-5,7
-14,-9,-10,-5,-1,4,0,0,7
-4,3,27,2,-1,-7,-1,-5,7
19,6,3,8,4,2,1,-3,7
-15,0,61,6,1,0,3,7,7
6,-2,-55,-15,-6,-2,7,0,7
-6,4,20,6,1,4,8,1,7
8,-10,-95,-17,-1,1,-6,0,7
5,5,42,8,5,2,9,1,7
-5,-9,12,3,0,-7,-10,-2,7
4,2,-13,-5,-5,0,7,0,7
2,4,22,7,0,-9,-10,0,7
7,-2,-7,-4,-1,0,-2,-1,7
-7,2,10,6,2,-2,-2,-2,7
1,3,-1,7,1,6,-1,-2,7
-14,-6,25,-13,-5,1,18,1,7
0,-11,-71,-9,-4,-5,-2,2,7
9,7,23,7,1,3,-2,0,7
4,0,0,2,2,-5,6,0,7
1,-3,14,6,1,4,-8,-1,7
6,2,0,-3,1,-5,-3,-7,7
-6,-1,10,-1,-3,6,5,5,7
2,-7,-13,-9,-4,-5,4,-1,7
-5,4,12,4,-1,-14,-26,-2,7
9,-7,-59,-10,-6,-3,-6,3,7
-4,0,10,4,-1,-1,-9,-3,7
1,7,2,-1,3,4,3,0,7
-1,4,17,7,1,5,10,3,7
5,-1,22,0,0,11,17,-2,7
-1,-4,13,-1,2,-7,-8,3,7
-21,-11,-63,-16,-6,-8,1,-1,7
1,11,40,3,-5,9,9,1,7
-11,-5,-21,2,4,5,4,1,7
3,-7,-28,-11,-6,-13,-24,-2,7
7,-4,16,5,2,-13,-10,0,7
1,1,-6,4,4,0,3,0,7
-6,8,54,-1,-2,2,7,1,7
3,1,-23,2,1,10,6,1,7
-5,-6,-11,-5,-2,11,15,2,7
2,0,-21,-6,-3,-16,-44,2,7
0,-2,10,0,-3,-4,-1,-1,7
6,2,3,2,-2,-3,6,-3,7
1,0,16,0,0,11,3,0,7
-17,-7,-3,-2,1,4,14,0,7
8,8,28,8,1,-2,-8,-3,7
-5,1,-6,-7,-2,-5,-3,-6,7
2,0,-30,2,1,-2,5,1,7
5,-10,-8,-9,-2,-7,-11,-5,7
9,20,23,5,-1,-9,-26,1,7
0,1,-32,-6,-2,8,3,1,7
-4,-13,13,-3,0,1,3,-4,7
-12,-9,-8,1,0,2,12,-2,7
5,7,9,4,1,0,6,0,7
10,0,-7,-1,-3,-5,5,-4,7
3,3,10,-2,-1,3,-6,1,7
-6,2,7,-2,-2,-7,-4,-2,7
-7,-7,-52,-12,-4,-8,-10,-6,7
0,-7,-14,0,1,0,2,-4,7
-5,5,4,-1,-1,-8,4,1,7
9,3,6,6,-2,11,9,0,7
-7,-4,13,4,-1,-4,-16,2,7
0,-1,-3,-5,-4,8,7,3,7
17,6,15,6,1,-8,-15,-8,7
-12,-10,-11,-7,-3,-3,3,-2,7
3,-4,-14,2,1,8,10,0,7
-9,4,17,5,5,-1,1,-5,7
-16,-8,27,-10,-4,-2,2,1,7
7,3,-25,2,1,3,0,0,7
5,-7,-6,-2,-1,-5,-5,-4,7
15,7,15,3,2,2,0,-2,7
-7,9,91,15,3,3,1,3,7
-1,-2,-60,0,-2,-2,-5,-4,7
-16,-15,-40,-13,-6,3,19,-2,7
5,7,25,0,0,-10,-6,-2,7
6,-6,-31,-6,-4,-8,-31,-6,7
10,3,37,4,4,1,-2,2,7
-12,3,-11,2,1,7,20,-5,7
2,-1,4,-3,-3,13,12,-2,7
-4,2,-2,4,0,-13,2,-1,7
-6,-9,-2,3,2,2,4,0,7
1,1,5,-6,-1,3,0,4,7
-7,3,10,3,1,-6,-4,-2,7
3,1,6,-1,0,5,11,1,7
16,9,27,2,-1,2,-1,1,7
-9,6,4,1,2,-4,-12,4,7
9,0,-22,-2,-7,-8,-9,0,7
-26,-10,-20,0,2,7,4,2,7
9,-5,0,-2,-2,-4,7,-4,7
16,4,10,-5,0,1,9,-2,7
-10,-6,-40,-2,-4,1,-1,0,7
-14,-13,-16,-8,-3,-4,-1,1,7
6,11,35,8,2,6,2,-1,7
-2,-2,19,6,4,-5,-15,1,7
11,13,55,7,2,10,-12,1,7
1,-9,-84,-27,-7,-4,7,-5,7
-13,-1,-2,1,2,6,12,0,7
-3,-10,0,-1,-2,-6,-1,-1,7
-2,-4,7,3,-4,-17,-27,-1,7
-2,1,37,9,2,14,12,5,7
0,0,-38,-12,-6,-6,2,-4,7
29,15,12,2,0,-1,0,-4,7
-14,-10,-27,-3,1,11,5,-1,7
-2,-4,38,8,-1,4,11,-6,7
-9,1,-66,-10,-2,-13,5,2,7
-7,-10,-3,-3,-3,-1,-8,2,7
32,11,26,5,4,1,7,-5,7
-4,11,4,0,-1,-1,-6,-1,7
-8,-9,15,-2,-2,2,16,-3,7
0,-2,-12,-1,1,0,2,-3,7
-10,-9,-2,1,1,-3,-2,-2,7
4,7,13,8,2,-2,-6,-1,7
4,2,9,-1,1,3,-13,-3,7
2,4,-10,-3,-1,-7,-5,0,7
-1,4,39,3,1,2,-1,1,7
-9,-23,-42,-11,-9,-10,-5,-6,7
1,-4,14,-1,0,4,-7,-1,7
-2,-6,8,-1,-3,8,5,-3,7
12,14,-10,6,2,-3,16,0,7
8,-8,-40,-11,3,6,10,-2,7
-15,0,16,7,0,-11,-14,-2,7
-15,-4,13,-12,-7,-11,-19,1,7
6,-2,18,7,2,7,8,-3,7
-3,-1,-24,-6,-1,-12,-16,-1,7
9,-4,-8,-2,-1,8,9,-1,7
-12,5,11,9,1,9,14,0,7
-7,-5,-9,-3,-2,-14,-22,-2,7
6,4,9,0,3,5,-5,1,7
4,3,3,1,0,-1,9,1,7
1,-7,-35,-3,0,-7,11,-2,7
7,2,4,-6,-1,7,-17,0,7
1,7,0,9,2,7,-3,0,7
-8,3,40,1,-1,-4,-9,-3,7
-4,-8,-39,-4,-2,-2,11,-2,7
-11,-1,-15,-9,-3,-3,7,2,7
11,5,21,5,-2,-5,-9,0,7
4,8,0,1,1,5,8,-1,7
7,-2,29,8,-2,0,-14,-5,7
-21,-14,-28,-7,2,-2,11,2,7
14,2,5,-6,-10,-12,-20,3,7
-6,-11,-12,-7,-6,-3,-2,-4,7
10,12,36,3,0,1,0,0,7
-8,-2,-1,5,-1,-8,0,-1,7
5,6,-7,-6,-1,-1,-2,1,7
2,-17,-53,-8,-3,8,6,1,7
1,2,13,-4,2,0,-9,0,7
-16,-3,-15,-2,-5,-6,11,-1,7
-2,-3,31,7,5,10,14,2,7
24,19,13,6,3,-1,-7,2,7
-15,-3,-16,-4,-4,-6,-8,-1,7
-1,-13,-6,-12,-5,10,4,-2,7
-7,3,-9,2,-2,-16,-2,-2,7
-8,-5,10,1,4,9,6,3,7
13,3,-1,2,-2,5,20,-2,7
-6,-4,2,3,1,-4,-13,-1,7
13,3,-6,0,2,1,1,1,7
2,0,25,4,-1,5,-6,-2,7
-5,2,-18,2,-3,-5,9,2,7
5,-23,-71,-24,-6,-1,11,1,7
-15,-9,7,0,1,-2,-5,1,7
1,11,-14,6,3,-5,8,-3,7
-4,-6,17,4,0,-4,-24,1,7
20,7,30,1,0,6,0,-1,7
-11,-10,-15,-3,-3,2,10,0,7
-14,-5,20,-4,-5,0,1,2,7
-7,4,-8,2,3,7,-5,0,7
3,5,10,-2,-4,-15,-25,0,7
10,7,-6,0,1,7,11,-4,7
1,-7,5,-4,-1,-7,-15,-1,7
2,-2,-12,4,5,5,12,-2,7
-9,10,49,4,-2,3,13,3,7
-5,2,-16,-1,-2,-5,-12,0,7
2,-11,-3,-7,-5,-4,-1,1,7
9,3,6,-1,0,-11,-20,0,7
-1,-3,5,6,4,11,5,-2,7
-7,8,28,2,-2,-4,4,-3,7
10,5,5,2,0,1,-14,1,7
-19,-15,-54,-6,1,-6,1,1,7
-1,-2,25,0,-1,-5,3,-2,7
10,4,-35,-4,0,8,-4,-2,7
-2,0,-15,-10,-2,-5,-6,0,7
14,8,24,3,-2,-1,8,-8,7
-8,-4,-9,3,1,1,-2,-3,7
0,-3,13,3,3,15,11,-3,7
5,6,25,1,-3,-13,-6,-1,7
2,-1,-9,3,2,4,0,2,7
-4,-2,-52,-11,-2,1,10,-2,7
-12,-17,-19,-9,-8,-2,1,-1,7
4,2,9,7,2,-3,1,-1,7
5,-6,10,-10,-7,-8,-29,-4,7
-3,7,-5,11,4,0,-6,0,7
2,-3,18,-1,1,-1,11,2,7
-18,-9,-27,-2,1,5,6,-6,7
13,9,1,-3,-1,10,10,-5,7
4,2,7,-1,-2,-4,-6,0,7
-5,0,27,2,-3,-9,-6,-4,7
-7,-1,19,14,3,5,6,-2,7
10,-5,-49,-11,0,3,8,2,7
0,2,-11,-9,-5,-13,-16,1,7
1,-2,9,4,1,-5,3,2,7
1,0,3,-1,1,9,12,2,7
-5,3,26,6,0,1,-6,6,7
8,-1,4,2,3,6,2,0,7
1,12,-5,-3,-6,-7,-11,1,7
-25,-2,20,2,3,5,5,0,7
-9,-5,-27,-2,0,4,12,-2,7
-5,-18,-37,-14,-4,-8,11,1,7
11,9,18,5,2,-4,-31,-4,7
4,-1,-27,-8,-3,5,0,-2,7
-18,1,39,5,-1,0,4,0,7
13,11,7,3,3,4,13,-1,7
-17,-13,-7,-4,-4,-1,6,-3,7
5,1,-9,-2,-3,-14,-32,0,7
-13,-8,-26,-13,-1,9,16,1,7
3,-5,5,6,2,1,1,-1,7
18,8,-4,1,3,6,13,-4,7
6,4,28,-2,-3,-3,2,-4,7
-6,5,27,4,0,-5,-3,-2,7
-1,-1,-26,-5,-2,14,7,0,7
-12,-5,15,-1,-1,-5,0,2,7
4,4,7,7,1,1,-2,3,7
11,0,-23,-12,0,5,4,-3,7
-11,-4,11,1,-2,-4,5,0,7
6,3,-10,-1,-4,-7,-7,2,7
-9,2,-14,-5,-3,6,6,2,7
1,-6,2,6,0,-15,-15,-2,7
-2,-4,9,-1,-4,-2,3,-2,7
-10,-2,2,2,3,4,11,-3,7
10,-3,-10,-4,-3,-2,1,1,7
11,7,10,1,2,13,9,-1,7
-9,-4,-26,2,-1,-9,-16,0,7
3,1,22,1,-2,-6,-7,1,7
1,-7,-32,-10,1,4,11,-2,7
-12,-5,18,0,0,-5,-4,1,7
18,9,11,4,-1,-9,-21,-2,7
-9,0,-19,-4,-1,7,2,-3,7
-3,-8,-18,-3,-3,-12,-16,-3,7
2,-6,1,2,-1,9,6,1,7
-10,18,78,12,4,-4,-2,-7,7
8,-8,-78,-14,-3,1,12,1,7
11,-10,-25,-4,-3,-1,-24,-3,7
-22,-2,-9,-6,-6,0,1,0,7
-1,-4,13,5,2,4,11,0,7
-11,1,19,3,3,7,-2,-1,7
7,13,61,9,5,-5,3,-1,7
22,3,-22,-1,-3,-7,-8,-1,7
-11,3,-14,-3,-4,5,10,-3,7
-2,-6,-6,-7,-4,-3,4,-2,7
3,-2,0,1,-1,-2,-12,-1,7
1,11,37,6,2,0,1,-4,7
-9,-3,-1,0,-2,-3,4,1,7
9,1,9,3,-1,4,2,5,7
2,3,30,9,4,5,12,2,7
-12,-5,-36,-13,-4,-3,-3,-1,7
7,-8,-48,-11,-4,1,3,-3,7
-3,3,10,2,-1,2,-2,0,7
-8,-7,6,6,1,-2,4,-6,7
7,3,5,1,1,-4,-5,2,7
9,2,25,-2,2,3,4,-2,7
-4,-5,-10,0,-4,-5,-9,1,7
-9,-1,-30,-9,-1,10,10,-2,7
-6,-7,15,6,-1,-11,-8,0,7
-1,3,8,-3,-1,-2,-8,-1,7
19,5,3,3,3,2,7,-5,7
-15,0,6,-7,-2,-6,12,-3,7
1,-5,-15,4,-1,6,-27,4,7
14,3,1,-6,-3,-6,-5,2,7
-29,-6,-11,2,0,-4,-5,0,7
9,-4,-2,-3,-2,-5,4,0,7
-4,2,18,1,0,7,17,-5,7
-4,2,-10,7,1,2,-4,0,7
21,28,14,1,-2,-9,-20,1,7
-10,-23,-37,-12,-3,2,0,-1,7
-12,-6,16,2,1,2,7,2,7
3,-1,-3,4,0,0,-7,-1,7
6,0,31,1,0,8,17,-3,7
2,15,-26,0,0,-3,-1,4,7
10,1,3,0,-4,-6,-7,1,7
-19,-11,-9,-2,3,5,6,1,7
7,-6,-8,2,0,5,2,-4,7
4,12,34,5,-1,-12,0,-2,7
14,-4,-6,-1,-1,-6,-24,-1,7
-19,-5,1,-3,-3,6,5,-1,7
-8,-10,-7,-2,1,-1,-4,-3,7
6,7,0,3,0,2,8,-1,7
-2,14,37,6,1,-3,9,-4,7
4,-10,-41,-9,-3,-9,-12,-4,7
6,-8,-8,-10,0,0,-10,-2,7
-10,-5,-2,0,-5,-16,-29,-4,7
-9,-5,-6,-6,0,8,17,1,7
4,1,19,5,2,1,2,0,7
-6,-2,-7,-1,-3,3,12,0,7
8,5,46,15,3,4,-8,-5,7
0,-4,-58,-22,-4,-12,-2,1,7
-7,2,-14,4,-1,-9,-20,-4,7
4,-9,-12,-9,-3,9,15,-2,7
-24,2,9,5,0,-2,0,1,7
9,-2,6,1,-3,8,12,-4,7
6,2,0,1,0,-3,-3,3,7
1,3,6,-1,1,-9,-15,-3,7
14,1,-7,0,1,10,9,1,7
-3,3,7,-1,-1,-3,-11,1,7
-6,5,-6,-3,-2,-6,7,0,7
-9,-13,-8,5,-4,-5,-3,1,7
2,1,0,0,-2,4,3,-2,7
3,-8,-18,-10,-1,4,7,2,7
4,9,18,4,1,4,4,3,7
0,1,35,2,0,-7,10,-3,7
-4,-9,-45,-2,1,3,-27,1,7
12,4,4,-6,-4,-8,6,-2,7
1,-10,9,-1,-2,2,3,-3,7
-34,-6,-3,-3,-2,5,12,-1,7
-5,4,-17,-4,-2,-1,1,-3,7
-11,-4,3,3,1,3,0,-1,7
10,-4,-9,-2,3,8,6,-2,7
10,7,7,6,3,-6,-5,3,7
2,-3,7,-8,-4,-12,-9,0,7
6,8,8,11,1,3,4,-2,7
-11,-7,-36,-17,-7,7,-4,0,7
-2,-7,19,2,1,-5,-18,-2,7
3,0,-9,-7,-4,-6,6,-2,7
1,0,8,7,2,-5,-8,-2,7
-8,4,25,3,5,3,11,-5,7
15,0,-25,-5,-4,-3,-3,0,7
5,3,-1,-2,-1,-2,15,-2,7
-13,-8,14,8,-2,2,-18,1,7
-25,-7,-1,-1,-7,-8,-1,-4,7
10,0,-18,-7,2,10,4,0,7
-7,-9,4,1,2,5,4,1,7
19,16,-4,6,2,-3,8,-1,7
26,3,5,1,-1,-2,-2,-3,7
-25,-5,-9,1,-2,-4,-1,-1,7
-4,-11,-20,-8,-6,-2,1,-2,7
7,5,-1,1,1,0,6,0,7
2,3,23,1,3,0,-12,-1,7
1,2,-24,-1,-2,-1,0,-1,7
-2,2,18,4,1,16,7,0,7
-12,-15,-33,-12,0,10,15,-3,7
12,10,51,4,-5,-23,8,2,7
8,4,-39,8,1,-1,1,-2,7
-1,0,-16,-13,-2,0,-14,0,7
-3,-6,9,-2,-1,5,1,2,7
-4,3,-9,2,1,1,3,-1,7
-3,0,34,4,0,4,-8,0,7
0,6,7,8,3,4,8,6,7
5,-5,4,-3,-3,-7,1,-3,7
0,-3,-53,-9,2,6,8,-2,7
-5,-3,26,2,-3,-7,-3,-1,7
12,5,-1,-1,2,4,-4,1,7
10,-2,-1,2,-2,-5,-3,-2,7
-27,-13,3,-6,-4,-2,-7,6,7
6,-1,-36,-6,-1,9,8,-3,7
18,0,-4,-7,-1,-12,13,4,7
-30,6,27,6,0,-9,-32,-1,7
5,-1,-17,4,0,-2,-10,2,7
-5,-3,17,0,1,6,8,-1,7
3,-1,-3,-5,-2,6,18,-6,7
-2,-1,-8,2,-1,7,5,0,7
6,3,13,4,-1,-11,-7,-2,7
9,-3,7,-2,0,-1,-3,1,7
-1,8,13,7,0,-2,-5,-2,7
-21,-10,-21,-8,-3,-11,-10,1,7
-4,-9,-25,-5,-3,6,5,-2,7
2,-1,5,-4,-2,-2,1,5,7
3,-4,2,3,-2,-6,-11,-5,7
9,3,13,1,-2,-8,2,1,7
3,6,21,4,6,7,-31,-2,7
-5,2,1,-5,-1,-6,2,-1,7
-9,-4,-35,-2,1,-3,0,3,7
11,4,6,6,2,16,12,1,7
11,2,0,-6,-5,-6,5,-2,7
-25,2,-15,-11,-4,-7,-5,-4,7
3,-11,7,2,0,1,-3,-2,7
-4,-6,-2,5,3,0,9,-3,7
2,-4,12,-4,-6,-5,-13,0,7
-18,-8,-16,1,-2,1,-2,-6,7
-3,4,30,0,-4,-3,1,1,7
3,-4,-9,-3,1,-6,-10,-2,7
11,9,-1,8,5,5,17,0,7
8,0,20,-2,-2,-9,-13,3,7
-18,-12,-22,-8,-1,0,-3,-5,7
14,6,-3,-4,-2,0,2,-1,7
-9,-2,-3,1,-1,-1,8,-1,7
6,4,18,9,4,7,-11,2,7
-5,0,8,4,2,4,4,1,7
4,6,-2,-7,-1,0,-1,0,7
8,-2,-7,-4,-4,0,13,1,7
-8,-1,-5,0,-1,-6,-5,-2,7
-7,0,-2,2,1,-2,-5,3,7
-2,-2,-12,-6,-5,0,-11,-3,7
-5,-10,0,0,-2,-8,9,-2,7
10,15,27,2,1,6,-1,0,7
0,8,-18,-1,1,5,-7,2,7
-2,2,35,5,-2,-9,-3,1,7
-14,-9,-16,-6,0,2,4,-3,7
16,-1,-14,1,0,0,5,-4,7
-9,-4,-15,-9,-3,-8,-4,-1,7
-4,-1,12,-1,-2,7,9,-1,7
20,11,6,5,4,9,-8,-3,7
-8,-7,3,0,-3,-9,-14,2,7
-8,-6,24,6,-2,-1,1,-1,7
-4,-4,-17,-2,0,3,3,0,7
-8,-5,-12,-11,-6,3,11,-5,7
11,5,-19,-3,2,12,10,-2,7
5,-3,-3,4,1,-5,5,-3,7
-9,-3,-4,4,2,0,-12,-2,7
-4,-1,-5,-1,2,3,0,1,7
6,7,1,5,-2,0,2,0,7
4,-3,13,1,0,15,13,-4,7
-11,-4,-12,-2,2,-12,-7,6,7
6,2,-15,-7,-4,-4,0,-1,7
-5,-2,-2,-5,-1,-3,7,0,7
9,4,11,1,0,-1,0,1,7
1,-2,3,5,0,3,8,-5,7
13,5,16,1,1,-2,5,1,7
-25,-5,-7,0,-2,-17,-40,0,7
-1,-3,-9,-4,-3,-2,-5,-3,7
-16,-9,3,-8,-4,3,5,1,7
3,0,-14,4,-1,-1,5,2,7
16,11,11,-1,0,6,10,-5,7
1,-4,21,1,1,-7,-9,-1,7
-5,8,-13,0,-3,-3,-2,-3,7
-26,-19,-4,4,3,15,2,-4,7
4,-8,-10,-4,-4,-11,5,-2,7
5,6,1,-3,2,7,-4,2,7
11,8,36,6,-1,-1,-3,-3,7
-1,6,-8,-6,-2,-8,-5,0,7
11,-1,-1,3,1,4,10,-1,7
-14,-3,-6,0,-4,-6,-14,-1,7
9,5,6,6,4,6,4,1,7
-1,3,4,-2,-3,-16,-17,-1,7
-3,-1,-8,-4,1,5,3,0,7
2,-2,-9,-2,-2,2,11,0,7
1,-4,-4,-3,1,11,12,-2,7
0,0,-7,-3,-2,-1,-1,4,7
2,-3,2,1,0,-2,4,1,7
-3,3,25,-1,-1,0,-2,-3,7
0,0,-47,-4,-1,-7,-6,4,7
11,1,47,6,-2,1,3,-3,7
-5,1,-11,4,3,9,-1,-4,7
-3,-7,-19,-13,-7,-3,-4,-5,7
4,-6,2,-5,-4,-3,3,-5,7
-15,-1,1,4,3,9,6,-3,7
-3,-7,12,6,-1,-10,-8,1,7
9,10,35,18,3,-5,-13,-2,7
25,9,-22,-10,2,2,4,-4,7
-18,-7,0,-2,-5,7,3,-3,7
-13,-3,25,-3,1,7,14,-4,7
9,2,-38,-1,2,-2,5,-1,7
-8,5,17,-4,-1,-6,-9,0,7
-1,-13,-27,1,1,-5,-8,-3,7
2,-7,22,0,-2,2,7,0,7
-4,1,-14,0,-1,0,-2,-2,7
-8,-9,0,-5,-3,-2,3,-3,7
6,7,-13,-6,-1,-1,-12,4,7
-2,-1,8,-2,-6,-9,-4,0,7
17,6,22,3,2,5,13,-4,7
9,0,-10,2,0,-1,-1,-1,7
-40,-9,-1,1,-1,-13,-18,-3,7
6,0,-11,-1,-1,-13,-40,0,7
-11,0,4,1,-4,0,4,0,7
4,5,-2,-1,0,-2,12,-7,7
11,-2,4,4,2,24,6,-1,7
-5,1,4,3,1,0,10,2,7
10,1,-16,-1,0,-1,-3,-2,7
-11,-7,3,2,-5,-13,-18,2,7
4,0,-32,-2,1,-3,11,-2,7
3,2,15,-2,3,15,9,0,7
8,-3,-38,-17,-5,-13,-11,-1,7
-17,-1,92,16,3,3,1,2,7
11,7,-39,1,-1,-7,-10,-2,7
5,-2,-15,-6,-5,5,10,2,7
-11,-12,-14,-7,-3,2,10,4,7
-4,3,16,5,2,0,1,-2,7
5,6,46,2,0,-4,-9,-2,7
14,8,-6,-2,-4,-8,6,-1,7
-6,-2,-11,0,4,5,-5,0,7
-17,-5,-18,-2,-3,-1,-2,-7,7
1,3,23,2,1,-2,5,2,7
3,2,-19,-1,1,2,5,-2,7
-9,-5,11,1,-5,-7,0,1,7
-6,-8,-31,-10,-1,13,12,3,7
8,2,1,1,-1,-4,-2,-2,7
-9,-1,-3,-3,-1,-11,-1,-6,7
-1,3,5,4,3,-5,-27,1,7
5,7,0,4,4,9,6,-1,7
3,-2,12,-1,-3,-10,-13,1,7
-4,-13,-29,-11,-3,23,12,-3,7
10,9,-28,-4,-1,-7,16,2,7
1,-5,13,1,-5,-5,-1,2,7
-5,1,-46,-6,0,2,7,1,7
-10,-7,0,-4,1,-7,-9,1,7
-11,-13,-5,-3,-3,5,6,-1,7
24,10,5,3,2,-2,-5,-3,7
3,2,24,2,0,1,2,0,7
4,7,4,6,1,-3,-1,-2,7
-4,1,2,-4,-2,-1,1,0,7
-1,-1,-11,-1,-3,-9,-3,-2,7
3,3,40,2,-1,-5,-11,2,7
-4,-6,-49,-13,-1,0,-17,0,7
5,2,17,3,1,6,8,1,7
-1,-6,-18,-1,-1,-6,-3,1,7
1,1,35,9,3,11,26,2,7
-3,0,16,-2,-2,0,13,0,7
7,9,-2,2,-2,-16,-40,4,7
-19,-21,-42,-16,-4,-2,6,-3,7
-18,-8,-9,-1,-1,9,13,1,7
-8,-1,16,1,-1,-3,4,5,7
-8,-5,15,3,1,7,12,2,7
19,14,12,7,-2,-4,-11,5,7
7,1,-19,-13,-2,-9,-7,-1,7
-1,3,6,5,2,3,7,-3,7
4,0,5,-1,-3,1,2,-4,7
-3,-4,-9,2,1,-1,-6,-1,7
-4,-2,-4,-1,-1,2,1,-4,7
7,4,10,1,-1,3,-1,0,7
-8,-3,-7,-3,-1,-13,-3,-1,7
6,1,15,-6,0,4,-2,-3,7
-3,0,-39,8,2,1,8,0,7
7,-10,-5,-9,-7,-15,-34,-5,7
-24,-6,-12,-6,-1,3,14,-1,7
-10,-9,16,5,5,2,-5,-1,7
3,12,31,0,1,7,-1,-2,7
-2,-2,0,1,0,-8,8,-3,7
12,10,-23,-10,-7,-2,-7,0,7
9,6,-7,5,2,3,-3,2,7
3,7,33,4,-3,-4,-3,-2,7
-20,-11,-44,-7,-2,1,2,-2,7
8,1,20,6,2,3,2,-3,7
-6,-14,-27,-10,-4,-2,4,2,7
8,5,46,7,3,1,-6,-4,7
13,9,-16,5,5,10,15,-5,7
-1,-15,-27,-6,-3,-21,-18,0,7
-9,1,3,1,1,20,15,1,7
5,-4,-4,-4,-4,-21,-24,3,7
-2,10,42,4,2,6,7,3,7
2,-1,-20,3,3,-1,11,-1,7
-5,-5,-3,-2,-2,-1,-6,-3,7
3,0,2,0,0,-1,5,1,7
7,2,4,4,1,-1,-6,-1,7
-8,-6,21,6,2,6,6,1,7
-12,3,-13,-3,-6,-8,1,-2,7
6,-11,-45,-7,1,4,6,2,7
-4,0,14,4,-1,-8,-14,1,7
10,9,20,4,2,12,3,-3,7
-5,-15,-70,-20,-5,-17,-1,0,7
-6,2,6,4,-5,-5,-8,2,7
11,0,10,0,2,16,9,-1,7
-7,6,13,4,2,3,5,-5,7
5,10,16,1,1,9,11,-4,7
10,-8,-18,-7,-3,-7,0,-4,7
-19,-13,13,-4,-3,-7,-11,-1,7
-11,-2,27,3,-1,0,-3,0,7
4,8,-16,0,1,-2,-2,0,7
-6,-7,-14,-9,-5,9,12,-2,7
15,9,5,5,1,-7,-26,-1,7
3,-1,25,-1,-2,-3,2,-5,7
2,3,-4,3,1,1,-3,3,7
0,-3,2,-3,-1,-6,-10,-1,7
-4,-1,-2,1,-1,-2,8,-1,7
-4,3,-6,-2,-1,5,7,1,7
-1,2,55,8,0,0,-1,2,7
1,-3,-48,1,2,10,10,4,7
0,1,-25,-12,-6,-9,-1,5,7
21,5,16,0,-2,-4,-4,-3,7
-18,-7,-15,-2,-3,-2,4,-1,7
-7,3,28,8,2,-3,-2,0,7
4,-8,-27,-6,-1,0,3,-3,7
-2,9,1,0,3,5,4,2,7
4,-6,7,-2,1,-1,-7,2,7
3,0,4,-1,-1,-4,-2,-3,7
9,1,4,2,-1,-2,0,-4,7
-21,-5,-14,-5,-8,-14,-34,3,7
3,-2,7,3,2,1,2,-1,7
-8,-1,-2,3,1,-7,-5,-2,7
8,-1,9,-3,-2,-5,5,3,7
3,-7,4,-2,0,28,13,-3,7
-1,-1,-32,0,-2,-13,-14,-3,7
7,11,38,0,-2,0,11,-1,7
-8,2,-1,6,3,8,10,-4,7
-4,-14,-12,-1,0,-5,1,0,7
9,3,-3,-3,1,5,-4,0,7
-10,-4,1,-3,-6,-2,-4,3,7
-1,2,4,8,3,-3,-2,3,7
-10,1,-4,-1,0,3,4,-2,7
15,-2,20,3,-5,-1,4,-4,7
-3,-1,-17,-5,4,5,5,-1,7
-5,-2,-4,-4,-4,-6,-7,2,7
6,0,-13,-2,0,-3,11,-2,7
-1,5,7,-2,0,-2,-21,2,7
-5,-7,-6,0,0,0,4,-4,7
-21,-2,25,2,-3,-6,-6,1,7
-3,2,-32,2,2,5,11,2,7
7,10,39,6,1,-7,2,-1,7
-20,-23,-83,-24,-6,8,6,-4,7
22,7,-1,-7,-3,-7,-11,0,7
1,-6,-5,3,0,-3,2,-1,7
-10,5,34,6,1,0,3,1,7
4,3,-9,-12,-4,-8,-12,3,7
-15,-20,-34,-8,-6,4,14,3,7
2,4,32,-1,0,-5,-11,0,7
5,2,-27,3,0,6,9,-3,7
4,13,36,11,4,2,-3,-5,7
-3,-10,-11,-2,3,4,1,0,7
5,1,0,-1,-5,-8,5,-4,7
-12,-8,1,-6,-2,1,4,-1,7
1,2,-6,3,-1,-9,-9,-1,7
1,7,4,6,3,7,-5,-1,7
2,-7,-8,-7,0,4,-7,-3,7
7,0,-9,-3,-1,-5,1,2,7
3,6,8,5,0,-3,5,-4,7
2,7,49,7,0,-3,7,3,7
-16,-9,-18,-8,-2,2,4,2,7
-4,-7,-63,-8,-1,0,-10,-4,7
3,-5,-18,-9,-3,8,7,3,7
3,2,40,8,1,-8,3,-6,7
2,7,-15,3,-2,-9,-24,-1,7
-1,-1,13,-2,-1,5,8,-4,7
8,11,14,8,2,1,4,-1,7
-5,-4,-19,-2,4,22,10,0,7
1,-1,2,-2,-2,-13,-10,1,7
1,-1,25,-1,-1,-7,-1,-4,7
-5,-7,-12,-3,-4,-9,-9,-1,7
5,4,-6,-2,-1,4,7,-1,7
3,2,8,3,2,19,23,-1,7
-4,-1,0,-4,-2,4,4,-2,7
1,-3,14,1,1,-8,-7,-3,7
2,5,-11,-3,0,-6,-9,1,7
-7,-9,-10,-2,-2,-10,-2,1,7
4,3,5,-2,-1,3,7,0,7
3,3,16,6,2,3,2,5,7
10,-1,0,-7,-7,-7,-5,-2,7
5,13,-6,2,5,3,-2,0,7
-18,-14,-15,-1,-5,-3,-1,-3,7
-15,-17,-42,-8,-3,3,-1,2,7
14,0,-2,-2,0,3,-3,3,7
-19,-2,40,-7,-4,-2,3,-2,7
19,7,-29,2,-1,-9,-16,4,7
-9,6,56,13,3,4,8,-2,7
9,6,-29,2,0,-7,-8,-1,7
9,-10,-6,-8,-3,1,15,-2,7
-4,4,11,2,0,10,-1,-1,7
-4,-1,2,-2,-4,-8,-10,0,7
2,2,15,9,0,-4,-4,-1,7
6,12,1,6,3,-2,1,1,7
-1,-15,-7,-10,-4,-9,8,0,7
-17,-8,-25,-5,1,16,11,-2,7
-8,-6,-17,-7,-4,-1,3,1,7
1,-1,-7,-1,-1,-9,-10,2,7
7,-3,14,-1,-2,-7,-24,-7,7
12,11,21,4,4,6,12,1,7
-11,-4,-8,-7,-4,-4,7,-4,7
-14,-13,-6,-3,-1,7,0,2,7
0,1,-9,5,2,5,3,-3,7
7,-2,8,-2,-1,-12,-10,-2,7
-10,-1,25,1,0,1,-1,-3,7
10,0,-45,-5,2,1,3,-2,7
-21,-5,3,0,-5,-3,6,1,7
2,-4,-26,-1,1,-3,-10,-2,7
-7,-14,-27,-13,-5,-6,-4,-2,7
19,10,23,10,1,-2,-4,-1,7
2,5,12,1,1,2,10,3,7
26,12,19,5,0,3,0,-3,7
-19,2,17,7,1,0,1,-1,7
-20,-13,-16,-7,-2,-2,4,-3,7
4,1,-3,-2,-2,-4,-9,2,7
8,5,15,1,-2,1,11,4,7
6,-9,-31,-4,0,-1,-3,-2,7
2,-1,0,1,1,-3,0,-2,7
5,3,8,-3,0,12,8,-2,7
-13,5,2,-1,-2,-4,-5,-5,7
0,0,16,1,-1,4,9,-1,7
-10,-1,-43,4,-4,-2,-12,0,7
-4,-6,16,-2,1,3,4,0,7
-1,7,-7,5,0,-8,-3,3,7
12,5,28,0,-2,-5,-21,-1,7
-10,-5,-2,-3,-4,-2,1,1,7
1,7,16,3,1,0,1,0,7
-8,-12,-35,-2,-1,0,3,-4,7
-3,0,12,-6,-2,0,7,-1,7
19,6,3,-2,1,9,-3,-1,7
1,5,8,-3,-3,-5,5,2,7
-2,-9,24,3,-1,-11,-34,-2,7
-21,3,-33,7,3,1,11,1,7
0,-8,-11,-5,-1,4,1,-2,7
2,1,11,0,1,3,17,-5,7
-1,-1,-9,-3,-2,-1,0,-1,7
8,0,21,7,3,3,-5,-2,7
5,15,-3,5,3,6,11,2,7
3,-13,-24,-10,-3,-1,-12,1,7
-2,0,-10,-12,-6,-6,-2,2,7
-14,-6,-9,-7,1,10,6,1,7
21,3,29,11,4,-7,2,2,7
-13,5,22,6,1,-4,-17,1,7
-4,-4,6,0,1,11,17,-1,7
10,6,1,0,-1,-13,-24,-3,7
-15,-17,-28,-18,-7,-4,9,-3,7
-2,-5,1,-3,0,8,4,1,7
3,-6,-38,-4,-3,-2,-2,-1,7
-12,4,28,7,3,9,14,-3,7
6,1,3,5,0,-7,-13,0,7
-2,-1,21,-5,-1,-6,-7,-1,7
-1,-4,-36,-3,-2,0,8,-1,7
12,5,-8,-5,0,9,10,-1,7
-11,-2,14,0,-2,-6,-7,-3,7
-5,-1,6,7,0,-1,5,-6,7
2,2,2,-2,-2,-1,-7,3,7
1,-4,-10,-4,-6,-8,11,-1,7
-2,3,0,1,0,2,-3,1,7
2,1,35,8,0,-3,3,-3,7
-13,-4,-25,-4,1,3,8,1,7
5,-8,-8,-6,-5,-4,-3,1,7
-5,0,1,-2,-1,2,5,3,7
7,2,-17,3,-2,-1,2,-1,7
18,8,30,5,2,7,-7,-5,7
1,2,-16,-4,-5,-10,-6,3,7
-16,-3,22,2,0,-1,-1,-5,7
13,-5,-35,-1,2,4,2,0,7
-15,-3,36,-1,-3,-15,-7,-5,7
20,2,-26,2,1,4,-7,-5,7
1,4,15,-4,-2,6,2,1,7
-10,-4,-57,-15,-4,-8,-16,0,7
1,-3,15,1,1,8,16,0,7
-14,-4,10,6,1,-12,-4,0,7
8,9,24,11,2,6,0,1,7
-3,-11,-57,-10,1,-2,5,-1,7
-1,1,9,-5,-1,-8,-15,-1,7
-4,-3,-2,0,-1,13,1,0,7
12,-3,16,1,-4,-7,-6,1,7
-3,9,7,3,0,6,12,-2,7
10,1,21,4,-1,-10,-8,0,7
-3,0,-24,2,2,-6,-3,1,7
-9,-6,0,-7,-3,-4,-11,-6,7
1,1,16,6,-1,0,-4,1,7
8,3,-21,-8,-1,8,2,-1,7
0,7,7,1,-1,3,1,-3,7
11,-1,7,3,-1,-5,2,-1,7
-12,-4,-12,-8,0,-8,-2,-2,7
-3,0,10,1,-3,10,7,3,7
-2,-4,3,1,0,3,2,1,7
4,3,12,-1,3,0,2,-1,7
3,-3,-11,-1,-3,-12,-21,4,7
-10,6,7,6,2,1,7,-1,7
2,-3,-46,-8,-2,-3,0,-4,7
-10,-8,-2,-4,-3,6,-3,-2,7
1,1,8,6,0,-1,-1,1,7
9,2,-6,-4,-3,0,4,0,7
-3,4,9,4,1,-7,-8,-1,7
-6,1,-2,1,2,-3,1,-5,7
21,3,13,-1,-1,8,6,0,7
-12,9,16,2,0,-1,0,0,7
4,-14,-37,-9,-2,-4,1,0,7
-12,3,-3,-2,-4,-6,-13,1,7
-12,-12,1,3,0,3,8,-4,7
8,0,2,-1,-4,-10,6,-1,7
-6,-3,32,0,0,12,-4,0,7
7,-10,-19,-2,0,-8,-5,0,7
-10,0,4,-4,0,0,4,-3,7
-4,-4,2,3,2,7,-7,0,7
2,7,14,2,-2,-8,1,-4,7
4,-7,-5,-1,-1,-3,-5,1,7
0,8,31,4,0,-3,3,-1,7
-4,-9,-43,-10,-1,-1,1,-3,7
-4,-1,8,1,0,4,7,2,7
1,1,-3,3,0,-10,-27,0,7
6,4,3,0,0,8,6,2,7
0,-1,24,3,2,4,0,-2,7
4,5,2,6,1,7,12,1,7
5,7,-24,-12,-2,1,19,-3,7
-9,-4,-19,-2,-5,-13,-28,-2,7
-2,-3,4,2,-3,0,6,-3,7
3,-3,-4,-3,-2,3,-6,-3,7
-2,4,23,3,0,2,6,4,7
8,7,7,0,2,-4,-3,2,7
10,7,3,4,0,-9,0,2,7
-31,-14,-35,-22,-4,12,-1,-4,7
4,-4,-16,3,1,2,4,-3,7
2,-2,-1,-4,-3,0,7,-2,7
8,5,47,11,2,-7,-16,1,7
6,-2,-16,2,3,-13,-13,0,7
-6,2,3,-3,-1,11,17,0,7
-4,2,-30,-4,0,-4,-3,-3,7
11,-7,21,-1,-1,1,1,1,7
-19,4,-19,2,1,2,2,-1,7
-15,-5,-3,-3,-4,1,1,0,7
7,0,31,10,0,-3,3,1,7
2,7,-38,-5,0,4,-2,-7,7
19,6,23,-3,-2,-11,1,2,7
-5,-7,-17,-3,1,7,7,-1,7
-12,-3,27,-1,-2,-5,-13,-3,7
-13,-20,-47,-4,-4,-2,4,-2,7
14,16,43,4,3,7,12,2,7
1,-1,1,4,-1,-4,-5,1,7
-2,-5,-5,8,0,0,11,1,7
-8,-1,35,-6,1,7,-9,-4,7
6,-4,-14,4,-2,-7,0,-3,7
-7,0,-20,-5,-2,-8,-19,4,7
11,3,-10,-8,-1,6,6,1,7
-6,2,21,2,3,-5,5,1,7
8,13,46,18,3,5,3,1,7
2,-17,-83,-25,-7,-9,-14,-2,7
-20,-8,-6,-3,0,-10,-16,2,7
5,-7,-31,-3,0,13,4,1,7
3,0,15,0,-3,-4,2,-1,7
-2,15,36,11,4,-2,-3,-3,7
8,2,-7,-3,-4,-8,-4,0,7
-3,3,-14,2,0,-13,-5,1,7
-10,-17,-5,-4,1,15,-1,3,7
6,1,14,3,1,6,3,-2,7
1,3,-7,-3,-1,-1,-3,-3,7
-2,-1,4,-2,0,-3,3,-2,7
-3,-5,-12,-6,-4,-6,-5,3,7
-3,1,40,9,0,2,5,-1,7
-1,1,0,2,4,13,9,-3,7
9,0,-32,-9,-4,-4,1,-2,7
-6,-4,-30,-7,-3,-3,2,-1,7
-3,-14,3,-7,-1,-3,-8,-3,7
-7,-1,14,3,-3,0,4,2,7
2,-2,13,2,2,4,-1,-1,7
1,-3,27,4,1,-7,-5,1,7
2,20,10,14,5,5,10,-2,7
6,2,-30,-13,-5,-11,-4,-1,7
-27,-20,-11,-9,-8,-13,-1,1,7
-1,0,-1,-3,2,15,0,-2,7
2,0,8,4,1,-7,2,0,7
3,2,24,8,2,7,-6,2,7
14,6,-2,2,-2,-7,0,-3,7
-9,-8,-18,-3,0,-6,-8,-2,7
8,4,13,-1,0,9,13,-2,7
-10,0,3,0,-4,-6,-2,-5,7
3,4,6,-3,-3,-2,-2,-4,7
-6,-4,-9,-2,-1,5,1,-3,7
-7,-7,-34,0,2,-4,-7,2,7
7,3,23,-4,0,-2,3,-5,7
-10,-4,11,13,5,9,-2,-4,7
-7,-3,-13,-5,-2,-10,0,-2,7
-1,-6,5,-11,-4,6,5,1,7
1,-1,-2,5,2,5,7,1,7
6,2,6,-1,-1,4,2,1,7
10,7,10,2,-2,-6,-6,-2,7
7,-3,19,2,0,-6,-22,0,7
2,0,-33,-2,-1,5,15,-2,7
-12,-14,-11,-1,2,-3,-3,-1,7
11,1,-34,-10,-4,-5,-3,2,7
-12,-2,7,-4,-5,5,15,-2,7
-6,-1,-28,0,1,-8,-7,3,7
1,0,22,-1,1,9,5,1,7
-10,-5,-25,-3,-1,-9,-4,3,7
5,3,12,-2,-1,-5,3,-1,7
4,-3,12,-5,-3,9,8,-2,7
1,0,-14,4,0,-14,-19,4,7
1,0,35,2,-3,3,9,-3,7
2,-2,-35,3,3,-3,-14,-6,7
1,-8,15,-5,1,8,4,-3,7
7,8,-18,-3,-4,-5,-9,2,7
-2,-1,0,2,4,1,-3,-4,7
-18,-6,-9,-4,-3,-2,5,0,7
-14,-18,-17,1,-4,-3,4,1,7
3,2,-10,-4,-3,0,-9,-3,7
-1,7,16,6,3,6,-7,1,7
18,2,14,1,-1,2,8,1,7
9,4,2,4,-1,-8,-7,-2,7
-16,-8,-14,-10,-8,7,18,-1,7
-6,-6,-18,-5,-4,-9,-5,1,7
5,3,3,-1,0,4,5,0,7
10,7,5,1,1,2,1,1,7
5,-3,-11,3,3,3,11,6,7
-10,5,42,4,-1,-10,-5,-1,7
5,1,-33,-4,-1,1,-15,1,7
-10,-4,-7,-5,-3,0,10,-1,7
-1,2,3,-7,-2,-3,8,-4,7
3,-5,11,2,-2,9,4,0,7
5,-1,10,2,0,-6,-8,0,7
5,12,-1,10,5,1,-5,1,7
-3,-1,0,-6,-2,-1,3,0,7
9,-5,-13,3,2,1,2,-4,7
-28,-9,-29,-7,-8,-3,5,-4,7
-6,-6,24,-1,-2,-6,-13,-3,7
-4,6,-8,6,0,-8,-16,2,7
6,-5,0,-15,-6,0,9,-5,7
10,-3,-2,6,2,5,9,-2,7
-4,-4,-14,-1,0,0,6,-5,7
-2,2,17,6,4,10,0,1,7
2,7,2,2,0,-14,-22,3,7
-3,4,35,0,-2,-1,4,0,7
-4,0,-28,-5,-1,1,0,0,7
16,-4,0,-9,-1,11,5,0,7
-1,4,-8,8,0,-7,-4,1,7
-19,-3,16,-1,-1,-4,6,-3,7
-6,-7,-5,-1,0,10,7,-2,7
1,-2,-11,0,-1,-9,-12,2,7
9,1,-9,-6,-3,8,15,-1,7
7,4,34,12,2,9,-4,0,7
10,8,-11,-3,-1,-10,-9,-1,7
-10,0,-4,-8,-2,8,8,-3,7
-19,-13,-18,-3,-4,-12,-5,-2,7
8,2,-16,-1,2,14,6,1,7
4,4,75,14,4,-1,2,0,7
0,-10,-61,-15,-3,11,11,-4,7
-4,2,6,2,2,-6,-2,-1,7
4,0,1,-6,0,-4,-4,4,7
4,-1,-3,0,-1,0,5,-1,7
-13,0,29,10,1,-6,-10,-1,7
6,4,-6,0,2,9,5,1,7
6,5,5,-3,-1,-8,1,0,7
0,1,-15,1,-1,2,-1,-1,7
10,-6,1,-1,-5,-17,-18,3,7
-28,-8,-17,-5,-1,13,11,0,7
0,-8,0,3,0,-9,-12,-2,7
-2,1,-1,-3,2,6,4,0,7
10,8,25,10,-1,-4,-3,-2,7
25,13,25,6,4,6,8,0,7
-5,-2,12,1,-4,-5,-4,-2,7
-7,-8,-38,-16,-6,-3,2,-4,7
-11,-9,-14,-3,-1,4,8,1,7
6,2,17,-4,-4,-7,-9,-4,7
-1,-6,-25,-1,0,5,11,3,7
5,-1,16,7,3,4,-10,-1,7
6,13,10,0,-1,-1,1,0,7
-5,-5,-3,-5,-2,-15,-10,0,7
-7,-9,-9,-6,-3,13,9,-1,7
-22,-6,-11,0,-5,-12,-13,0,7
-3,1,-3,0,4,-2,-4,-4,7
18,3,-19,-1,-1,-2,-9,4,7
5,5,-6,-2,0,-2,7,-7,7
6,-5,2,-3,-2,-5,0,0,7
-11,7,14,1,-1,0,1,-6,7
-1,3,27,-1,0,5,-2,-5,7
1,0,-29,-3,-3,-9,-6,1,7
2,5,27,3,0,-2,-1,-5,7
-4,-2,-23,4,3,-4,1,-2,7
-8,-4,14,0,-3,-1,-3,0,7
-1,-2,0,-3,-3,-1,1,2,7
8,3,-13,-3,-2,-1,3,5,7
-4,-5,11,1,2,2,2,1,7
1,-5,-11,0,0,7,10,3,7
-6,0,8,0,-2,-7,-3,-2,7
0,3,4,2,-1,-6,-13,1,7
12,6,27,9,2,2,-3,-1,7
6,8,1,-3,0,0,6,-2,7
-10,1,-61,-14,1,-5,12,-1,7
-24,-13,-4,-4,-1,18,-5,1,7
3,-5,1,-1,-4,-1,-2,2,7
6,-3,10,4,-1,-3,3,3,7
14,2,-7,6,1,8,13,-2,7
-5,7,20,4,1,-8,-7,-2,7
-10,-6,-11,-12,-4,3,6,4,7
-6,1,-11,0,0,-3,0,-5,7
1,-1,7,-2,-2,-3,-12,-4,7
7,-7,-21,-1,0,4,10,1,7
-5,1,23,7,0,-6,-3,-4,7
-3,5,-6,-7,3,16,8,-2,7
-2,-5,2,3,-2,-4,-10,1,7
15,1,17,0,-2,-8,2,-4,7
-8,-6,-27,-8,-5,-7,4,-4,7
-17,-6,-48,6,2,6,1,0,7
2,-4,-5,-11,-2,1,5,-5,7
4,0,-4,-5,-3,-4,-7,2,7
8,2,18,5,2,-5,-6,2,7
-4,2,9,1,1,-2,-2,-2,7
15,2,22,9,3,7,-5,0,7
-9,-6,-16,-9,-3,-4,3,-2,7
-14,-1,11,1,-2,-4,1,-2,7
4,-11,-21,-4,-4,-6,-13,1,7
-1,8,24,0,-1,1,2,0,7
6,0,-9,0,-2,-12,-10,0,7
2,1,2,0,2,10,2,3,7
-2,0,6,1,2,-6,3,-3,7
12,1,6,-1,-1,-10,-3,-1,7
-5,-3,-16,2,-3,13,10,2,7
-11,-1,-6,2,7,5,6,-2,7
4,4,47,9,-3,-6,-16,-4,7
-1,-4,-23,-9,-5,-12,-8,2,7
-11,-9,-55,-11,-2,-2,5,-3,7
9,-1,29,6,0,3,4,2,7
10,7,-7,-4,0,1,5,1,7
-15,0,18,10,1,-8,-15,-3,7
-3,7,32,7,-1,2,7,-2,7
2,-16,-33,-8,-6,-11,-11,-4,7
-9,-4,-1,-4,-2,8,2,2,7
1,0,16,4,-1,0,5,2,7
16,6,3,2,1,-2,-2,2,7
8,6,10,7,0,-3,-3,-3,7
-12,-5,8,-8,-1,4,6,1,7
-19,-9,-22,-3,-2,-8,-5,3,7
0,-7,-14,0,1,12,-2,-4,7
-2,-3,0,-4,-2,-4,1,-1,7
12,4,11,3,-1,0,1,3,7
1,1,-26,-4,2,9,15,-2,7
0,7,49,2,0,-9,-6,-1,7
1,-4,-44,-4,-4,-2,-7,1,7
2,-5,-4,-3,-2,-3,-1,-3,7
-13,-1,17,3,2,3,-1,3,7
6,10,27,11,2,-1,5,0,7
-11,3,-16,-14,-3,6,-16,0,7
10,-10,-9,-14,-7,-8,-3,-3,7
-10,-2,17,9,1,-1,-5,-3,7
12,6,-26,0,0,1,0,0,7
6,1,15,1,0,0,19,0,7
-17,-10,-21,-1,0,-3,8,-1,7
10,3,1,-5,-1,-4,-36,-1,7
-14,-6,-3,-6,-1,2,3,0,7
5,4,5,3,-1,-1,6,-2,7
-11,-3,24,2,-2,-3,0,0,7
8,0,-6,3,3,2,11,1,7
2,3,-22,-6,-2,-4,-10,5,7
5,2,6,-5,-1,8,4,0,7
3,-2,-1,0,-2,-11,-8,2,7
3,4,15,4,1,0,1,1,7
-15,-4,12,3,1,2,-1,0,7
2,-1,-1,4,5,8,8,-2,7
-3,-4,-13,-8,-6,-10,3,-4,7
13,-3,-7,-1,-3,0,-14,-1,7
-4,-25,-22,-7,-4,-11,-14,-3,7
-7,9,25,5,2,5,16,-4,7
1,2,6,14,6,19,4,1,7
1,1,1,-10,-4,-11,5,-3,7
1,2,-13,-4,-1,5,4,-2,7
7,-7,-6,-1,-4,-6,-7,-2,7
8,9,26,4,2,-2,-6,-1,7
-22,-9,-28,-2,-1,-3,-7,1,7
0,-1,22,3,-1,6,9,-6,7
0,13,23,5,2,-3,-2,-2,7
3,-7,-37,-6,0,-3,5,2,7
10,3,-13,-1,1,-1,-6,-1,7
7,1,1,-9,-5,1,-13,2,7
-12,-6,-11,-9,-5,-4,1,-2,7
7,4,9,8,4,4,1,0,7
-5,4,25,3,-1,-4,14,-2,7
13,7,3,2,2,-6,-9,2,7
-7,-7,-18,-1,-2,1,3,-2,7
-2,6,10,-3,-4,1,-8,-4,7
4,0,-7,-1,0,-2,4,0,7
2,3,47,0,2,6,1,-1,7
-2,-2,-47,1,-4,-6,-3,4,7
-10,-6,24,3,0,-4,-12,-3,7
7,7,-1,-10,-3,1,0,0,7
3,-2,11,5,-2,4,17,1,7
-26,-16,-23,-7,0,-7,-7,-5,7
9,-2,0,5,-1,3,-9,0,7
-12,1,-6,1,-4,2,5,-6,7
13,8,-8,0,2,5,8,3,7
9,4,27,3,1,-4,6,-1,7
0,-3,-32,-11,-5,-14,-16,1,7
5,-2,14,0,0,10,8,1,7
-8,5,-4,3,1,-6,0,-2,7
-5,-3,-5,0,-3,-1,-6,-1,7
-3,-3,-45,-6,0,1,-6,-3,7
-4,-4,12,-3,0,4,-3,-3,7
-2,0,-13,-3,-3,-9,5,-1,7
6,6,15,2,4,16,-3,2,7
0,-1,-3,3,-3,-16,2,-1,7
-4,-12,-6,-1,-3,-2,-12,6,7
-24,-15,-10,4,2,3,-4,-2,7
8,4,24,3,2,-2,-1,-2,7
6,12,-2,-1,0,3,11,-2,7
-3,2,6,-3,-4,-5,-1,-4,7
-10,-6,-18,-3,-2,-9,-9,-3,7
20,-2,-7,0,0,-1,-4,0,7
-12,-4,18,5,0,12,11,1,7
9,8,20,1,3,-5,3,2,7
9,4,6,-5,-2,0,0,0,7
-3,2,-37,-4,-3,1,-11,0,7
-9,-5,24,4,0,0,4,-2,7
1,-4,-15,1,0,7,8,-2,7
-12,-7,-16,0,-2,-9,-17,-1,7
13,3,16,3,-2,-16,-17,-1,7
-8,0,1,-8,-1,1,4,3,7
5,3,7,4,0,15,7,-2,7
6,2,8,1,2,5,11,1,7
3,1,2,-1,-4,-7,-13,0,7
4,0,-9,1,1,-4,-3,0,7
-21,-12,-15,-5,-2,-13,-9,-3,7
8,-1,-4,-3,-1,7,2,-2,7
-6,7,25,3,3,0,6,0,7
-2,-3,-15,-6,-5,-3,-1,0,7
5,-3,-36,-2,-2,1,0,0,7
9,8,31,-3,-5,-4,2,-2,7
-3,-8,-48,-2,-2,-4,-4,-4,7
-10,-2,24,5,1,-6,-16,2,7
-1,0,-3,-1,0,5,7,2,7
1,3,-24,-5,0,-12,-17,5,7
5,-9,-5,-13,-3,9,21,0,7
7,-2,-5,0,1,2,-3,-2,7
-18,-1,13,3,-1,-7,3,-2,7
0,0,0,6,1,-1,-2,-6,7
3,5,19,2,4,8,3,-4,7
6,-8,-11,-4,-1,-5,4,0,7
1,10,43,6,-1,1,0,1,7
2,-5,-9,-1,0,14,9,-1,7
-9,-6,-23,-1,-4,-12,-8,2,7
4,8,14,3,1,3,4,-4,7
-7,-7,-14,-9,-3,0,-3,-6,7
-6,3,6,-2,-2,-1,2,-4,7
-2,-1,6,-2,1,10,5,-6,7
0,1,-32,-5,-1,-6,-13,-4,7
2,-5,12,2,2,-5,2,0,7
3,-4,2,-2,-3,-5,-8,-3,7
-3,4,14,4,3,4,7,0,7
-4,8,12,1,-1,-3,2,-3,7
23,1,-3,-8,-2,2,-1,2,7
-9,-6,-41,-11,-5,-1,3,0,7
-7,-1,18,1,-1,-4,-6,2,7
-13,-3,9,4,2,7,6,-1,7
7,-6,-19,-4,0,-1,-14,2,7
-13,-5,-12,1,-1,1,6,0,7
11,-5,-15,-8,-4,-10,-10,0,7
-6,5,32,7,-3,-5,-7,-1,7
-2,-1,-34,-6,-1,4,6,0,7
1,4,18,2,-1,6,13,-2,7
2,3,-7,3,-1,-16,-19,2,7
-4,-3,9,3,2,17,9,0,7
-5,1,13,-2,-1,-13,3,-2,7
-7,-5,-10,-7,-2,-1,-15,3,7
-15,-11,-2,-9,-4,-6,2,2,7
18,6,2,3,3,5,7,4,7
0,1,-19,2,-2,0,1,2,7
2,0,5,2,0,8,7,1,7
12,5,30,5,2,-6,-5,-3,7
-1,-9,-47,-11,-5,-6,-10,-1,7
-9,-1,2,0,-3,2,0,-2,7
-3,-9,-2,1,3,4,6,-2,7
-15,0,19,3,-3,-2,-4,-1,7
9,-1,-17,-6,0,3,4,-1,7
11,7,4,3,3,-5,4,-1,7
-3,-6,-5,-10,-3,-9,-15,1,7
3,8,11,3,2,5,6,0,7
-8,-4,8,-1,-3,-6,-1,2,7
-4,4,1,7,2,9,11,0,7
3,6,5,4,3,16,-7,3,7
8,0,1,-1,-2,2,5,-3,7
0,3,-6,-4,-3,-3,-1,1,7
-13,-9,-15,5,0,-7,-6,-3,7
0,-2,3,-4,0,-12,-6,-1,7
-1,0,-14,-1,0,14,5,1,7
-3,1,33,1,-2,3,6,3,7
8,-2,-27,-6,-5,-2,-2,-7,7
2,-1,-3,1,0,-12,-10,-4,7
-5,-4,-25,-9,-2,2,2,-1,7
-4,2,33,5,2,-3,3,-2,7
-2,-9,-5,0,0,1,-11,6,7
-9,0,9,0,-3,5,15,1,7
11,-1,-1,5,1,-4,7,0,7
-7,-2,-12,0,0,11,4,-2,7
5,11,40,-11,-3,-7,-11,0,7
-5,-15,-28,-1,-2,2,11,-2,7
-15,-7,13,1,-1,6,-1,1,7
6,-1,22,10,1,-1,4,1,7
-10,2,4,8,3,0,4,0,7
3,1,-6,-11,0,2,-1,1,7
1,-1,-48,-11,-3,0,9,-5,7
1,1,-1,-2,-1,-11,-25,-5,7
4,2,25,7,3,7,13,3,7
6,9,16,7,2,-16,-25,-3,7
-3,-4,9,-1,-6,-1,11,0,7
8,5,-24,-5,2,4,7,-4,7
-4,-5,2,-5,-7,-18,-18,-4,7
-1,0,14,3,-2,15,16,-1,7
-1,4,38,-1,0,-5,-18,1,7
-13,-10,-68,-6,0,1,6,-2,7
8,6,22,5,1,-1,0,-3,7
-1,1,-4,-3,-3,-7,-5,-1,7
11,8,7,4,2,2,0,1,7
0,5,2,-3,-1,0,5,1,7
-2,-7,25,0,2,5,3,-1,7
4,3,8,8,3,0,-1,-1,7
-10,-7,-49,-12,-3,-4,3,-1,7
9,-1,9,3,3,2,0,-2,7
-2,-2,-14,-5,-5,-3,7,-1,7
3,9,32,7,-1,-7,-10,-3,7
5,1,18,0,0,12,7,1,7
-4,-12,-29,-8,-2,-5,-8,1,7
-5,4,5,3,-1,1,8,1,7
9,-2,-20,0,-1,-6,-8,-1,7
-2,-8,-39,-5,-2,-7,4,-5,7
-8,3,17,3,0,3,5,0,7
-2,2,-1,-1,2,4,-1,-2,7
-11,-9,7,-2,-2,-4,2,4,7
-6,3,-13,3,1,2,-9,-1,7
11,-8,-3,-6,-4,-1,4,0,7
11,3,6,2,2,1,-1,-2,7
-2,3,-49,-5,-3,-2,9,-1,7
-7,-2,32,2,-1,-6,-13,1,7
-4,4,1,1,0,-2,2,-3,7
-4,-4,-8,1,2,13,4,-4,7
5,-3,9,0,-1,11,14,-5,7
2,4,20,2,3,-2,10,0,7
-3,-5,-10,-3,-3,-11,-27,4,7
-2,-2,-12,1,-5,-6,-7,4,7
-3,-1,4,-3,1,3,7,-1,7
-1,2,6,0,-3,1,-1,-3,7
-4,-5,-11,-6,-3,-5,4,-4,7
-3,-3,1,-1,0,1,-7,-1,7
-3,0,-10,3,2,2,2,1,7
10,7,16,-2,-2,-5,-8,-2,7
0,-8,4,-2,-1,1,4,-3,7
-11,-4,-4,-3,-2,-1,-4,-1,7
-2,-4,23,5,-2,-8,-2,3,7
3,5,-25,-1,1,-2,1,-1,7
3,-6,-21,-1,0,9,12,0,7
-18,-11,-13,-7,-3,-11,-15,1,7
4,4,8,-4,-2,-6,-6,-1,7
-10,-1,17,1,0,-4,-5,4,7
7,5,39,6,3,13,21,4,7
8,4,-17,5,-1,-12,-5,-5,7
1,1,-19,-14,1,5,-2,-1,7
-7,-6,0,-3,-5,0,5,-3,7
4,11,2,1,0,6,1,0,7
5,-13,4,-2,0,6,12,1,7
-18,-3,12,2,3,-5,-6,1,7
10,-3,4,2,-5,-8,-15,1,7
1,6,2,1,1,-3,-15,2,7
-13,5,-2,-3,-1,2,3,-2,7
9,-13,-66,-19,-8,0,2,-2,7
0,0,13,4,4,5,11,-4,7
2,-10,-4,3,-3,-11,-18,0,7
4,11,13,2,0,3,-3,3,7
-4,3,24,2,-2,-2,9,2,7
-15,-4,-5,-1,4,2,-6,-4,7
8,10,-18,-3,-2,2,-7,-5,7
-3,-11,-1,-7,-4,-5,-3,5,7
-3,-4,-6,4,2,14,18,0,7
6,2,5,1,-1,-9,-12,2,7
-10,3,9,-1,-6,-16,-10,-4,7
11,-4,0,2,-1,-1,-18,-5,7
9,10,21,5,1,-9,-18,1,7
-4,-10,-25,-2,-1,7,14,0,7
1,-1,22,-5,2,4,12,-9,7
-1,1,-16,-1,-4,1,1,-1,7
-1,3,3,2,3,-3,1,1,7
1,7,14,5,-1,-2,3,2,7
-2,-7,-12,-5,-1,-9,-6,0,7
14,7,34,-6,-5,-2,7,2,7
-3,-3,-30,-4,2,10,8,-2,7
-12,-21,-27,-9,-3,3,6,-2,7
-10,3,8,3,1,1,10,0,7
-10,-8,-3,1,-1,-7,-17,-4,7
8,6,37,3,-1,-5,-12,-1,7
18,10,-9,5,1,5,11,3,7
-18,-19,-17,-13,-2,18,5,-2,7
3,-3,-31,3,5,-4,-6,2,7
6,4,15,5,-2,-5,6,1,7
-1,4,9,-2,-1,-4,-3,-3,7
0,-2,10,7,-2,-6,-10,0,7
-6,3,-4,-3,0,6,11,-1,7
-1,0,-5,3,0,-1,0,1,7
18,-10,4,-5,-4,-3,1,-2,7
-22,0,-1,-1,2,5,1,5,7
-1,-3,-1,-2,-1,-3,-4,-1,7
-10,-4,14,4,-3,-4,1,-4,7
-2,0,7,1,0,-5,-13,1,7
15,15,7,-2,-4,-4,-5,-1,7
0,-10,-45,-8,0,7,0,-3,7
-12,-16,11,-4,-4,-10,-2,0,7
-4,11,38,3,-1,-3,-3,-1,7
0,-4,-32,5,2,-3,13,0,7
17,11,5,-6,1,8,23,0,7
1,-5,-3,-1,-5,-8,-29,1,7
-21,-15,-22,-9,0,0,-1,-2,7
4,2,33,9,1,-6,-5,1,7
9,2,-13,-14,-6,-1,10,-1,7
9,16,22,8,4,9,15,-3,7
-23,-29,-61,-16,-6,-1,-29,-1,7
5,1,21,0,-1,-8,-9,0,7
-7,3,-10,3,1,-3,-15,4,7
-1,-1,3,-2,-1,6,6,-1,7
5,8,13,4,1,3,11,0,7
2,-8,-11,-6,-1,-1,-8,-3,7
-6,13,89,11,2,-1,4,0,7
-9,-18,-93,-5,0,-5,5,-1,7
10,6,-9,-4,1,10,9,0,7
-7,-3,-4,-6,-5,-3,3,-2,7
-21,-10,4,5,4,3,7,-2,7
22,8,14,-5,-2,0,-6,-2,7
-19,-5,-31,-6,1,3,-1,1,7
-3,-11,-4,-4,-5,-3,2,2,7
-2,13,2,0,-1,17,4,3,7
-10,-7,26,5,1,-18,-22,1,7
17,-7,-2,0,0,-1,0,-1,7
2,6,-15,-4,1,2,11,-1,7
-3,-13,-35,-6,-1,1,5,-3,7
1,2,-7,0,1,5,6,-2,7
9,12,36,3,0,-7,-4,1,7
0,3,9,7,1,-1,-1,-2,7
4,3,12,0,-1,-6,1,-5,7
-10,0,-33,-9,-2,1,1,1,7
8,-7,-29,-8,-2,6,-2,-2,7
-25,-8,7,3,-1,-1,-6,0,7
7,-3,-10,1,-1,-2,-8,-4,7
-4,5,36,-1,-5,-4,-1,-3,7
10,9,17,5,5,7,0,0,7
23,2,-30,0,2,5,0,-2,7
-16,-3,2,-6,-6,-16,-8,0,7
6,3,20,3,0,12,0,-1,7
-9,-3,-6,3,2,6,4,-3,7
16,8,12,-1,1,-1,8,-6,7
15,-1,16,-2,-1,-9,-10,-1,7
-3,1,-57,0,0,0,12,-5,7
-33,-3,11,-2,-3,-4,-2,0,7
11,5,16,4,4,10,2,1,7
4,-2,-7,0,-1,-4,7,0,7
5,-1,13,-3,1,10,0,-5,7
-9,3,6,6,1,-13,-3,-1,7
-2,-6,8,-5,-5,-2,3,2,7
-18,-2,-21,-4,-2,-5,-9,-5,7
7,-1,10,0,1,8,12,2,7
16,5,0,2,0,4,1,-3,7
-2,13,33,7,4,1,13,0,7
0,-14,-37,-2,-2,-9,-23,3,7
1,-2,30,3,6,7,5,0,7
0,3,4,7,-3,-4,17,-1,7
-8,-17,-62,-23,-6,-2,-30,0,7
-5,1,30,4,-3,-2,9,5,7
-6,-3,11,-1,0,-9,-3,-3,7
-19,-3,8,3,3,12,-1,0,7
10,-3,18,4,0,-10,3,-4,7
1,6,-23,-5,0,-2,-6,-1,7
2,4,-3,-5,-4,-7,-9,-1,7
8,-1,0,2,0,-1,2,0,7
-4,-1,-4,-2,-2,1,0,3,7
-1,9,51,7,1,-2,-2,-1,7
-8,-6,-57,-2,-5,-4,0,2,7
13,4,26,-4,0,3,1,1,7
-19,-13,-61,-8,-4,1,5,-4,7
10,0,23,7,4,-1,3,1,7
14,7,12,-5,-4,-2,-19,-3,7
-18,4,-14,-7,-4,-4,1,-2,7
9,0,22,4,-2,-5,1,-1,7
0,-3,-17,3,3,10,17,-1,7
-17,-10,-4,-8,-2,-7,0,2,7
28,3,-12,2,-1,-4,-16,-4,7
-6,6,14,0,2,1,7,4,7
-1,2,-12,2,0,0,-1,-3,7
11,1,7,-2,-4,-15,-30,3,7
2,-6,0,-2,1,13,20,0,7
-24,2,0,-1,-4,-13,-30,-3,7
-3,-1,-11,-4,-2,16,13,-6,7
-3,0,-8,3,0,-6,-7,2,7
6,0,20,4,1,-11,-2,2,7
6,8,50,8,2,0,2,-1,7
-9,-11,-39,-9,-2,1,7,-1,7
1,5,-18,-2,4,10,6,-7,7
4,-12,-51,-9,-5,-7,0,1,7
9,14,45,8,3,1,1,1,7
-7,-9,-27,-8,-7,-9,-17,1,7
-11,-5,27,6,1,-1,11,-3,7
-6,-2,2,-7,0,1,-18,0,7
13,7,-20,4,2,-1,6,-1,7
17,-2,10,-3,5,7,10,-4,7
-25,-19,-61,-12,-6,-5,6,-2,7
12,2,-2,-7,-4,-13,-13,-5,7
-7,-7,-34,-7,-5,9,2,1,7
10,8,13,7,3,5,5,-1,7
7,5,18,9,4,5,-11,0,7
3,-4,21,0,-6,-6,1,-3,7
-17,0,-14,-7,-2,-6,0,-1,7
4,-1,10,-2,-1,8,15,-1,7
4,4,15,2,0,3,27,-1,7
2,0,5,4,-1,-8,-7,-1,7
1,0,-4,2,1,7,-4,0,7
10,-3,-16,-10,-2,-6,-4,-2,7
-23,-7,-3,-8,-4,2,8,-3,7
-1,2,48,3,0,7,4,-1,7
-1,-5,-67,-4,-1,-2,-7,-3,7
5,-2,10,-2,0,-4,-11,1,7
16,3,-19,4,-1,3,0,-2,7
-34,-11,-43,-9,2,1,14,3,7
16,-2,37,8,1,-6,-3,-2,7
-7,15,13,4,-3,2,-4,-1,7
11,-1,-15,-13,-3,3,-7,4,7
-1,5,18,7,2,7,12,-1,7
-4,-2,1,-8,-1,-10,0,-3,7
-11,-7,0,6,0,0,-7,-6,7
7,5,21,2,0,1,14,0,7
3,0,-6,5,2,4,8,0,7
8,5,-3,-6,-4,0,11,-2,7
0,-4,12,-1,1,7,1,1,7
-11,2,1,3,0,-1,-3,-3,7
-8,-9,-35,-7,-2,1,0,0,7
3,10,89,13,3,-3,10,-1,7
-10,-17,-113,-22,-3,-6,-23,-2,7
22,7,11,-6,-3,0,-8,0,7
-18,-6,11,5,-2,-8,-8,1,7
22,-1,-3,-2,1,14,10,2,7
-33,-3,28,5,-4,-11,7,1,7
-22,-10,-10,3,4,1,4,1,7
18,6,24,-2,0,4,-17,-6,7
7,-2,-48,-9,-5,-4,-6,2,7
10,0,13,-1,1,-1,4,0,7
-6,-7,-9,1,-2,-6,-5,-5,7
-2,8,13,5,-1,-5,-22,0,7
-7,-8,3,0,1,9,-4,-8,7
10,9,9,0,0,-17,-9,2,7
-1,-7,41,3,-2,8,6,0,7
9,9,-30,0,3,4,7,5,7
7,-4,-18,-4,-1,-1,-19,5,7
-5,-5,8,2,-3,-4,4,1,7
-2,-2,6,-5,-1,-7,-12,-5,7
-5,6,4,6,0,0,7,-2,7
-6,-2,1,3,5,1,3,3,7
1,-5,1,-7,-4,11,11,5,7
17,5,13,5,3,-6,-9,3,7
-11,-9,-51,-5,0,-4,-21,-3,7
-16,-13,6,-6,-7,-4,8,-3,7
2,9,13,13,6,2,4,-5,7
4,0,-9,-1,-4,2,-7,-2,7
5,9,24,-3,0,-6,-3,-1,7
0,-5,-5,1,-1,-5,-7,1,7
25,3,5,4,-2,-3,6,-3,7
-21,-1,-6,-3,1,2,-15,-1,7
6,-5,-1,-3,-3,-15,-12,0,7
1,0,-22,-5,1,5,12,3,7
9,7,30,-2,-8,-7,2,-3,7
-19,-6,-60,-6,-1,-3,8,-2,7
0,-6,3,-4,0,15,8,-1,7
6,5,-4,0,-2,-3,-11,-5,7
-9,-7,1,1,-2,-8,-17,0,7
-6,3,-12,1,0,-1,6,3,7
-1,1,1,-3,-2,1,8,-6,7
-8,-3,22,4,0,-2,-1,1,7
-2,-1,-28,-12,-1,0,-19,0,7
17,8,22,4,2,3,9,-3,7
-7,-3,2,0,-4,-8,-5,0,7
1,-1,-9,1,2,5,6,-2,7
0,1,20,10,0,-4,12,-1,7
4,1,0,-1,1,5,4,-2,7
1,6,24,0,-1,8,8,0,7
-12,-8,-39,-9,-3,0,8,-5,7
-14,-3,25,2,-1,6,5,0,7
15,-9,-34,-1,-1,-10,4,1,7
3,0,15,4,0,22,24,-3,7
3,7,26,1,1,-7,-23,1,7
-8,-3,-28,-3,2,-4,3,-1,7
-4,3,39,5,-2,0,-5,0,7
-8,-2,-24,0,-2,-1,2,-5,7
0,-3,12,1,-2,-11,-21,-2,7
9,6,8,0,3,16,17,-5,7
17,-3,0,-3,-3,-4,-5,-1,7
-28,-4,-1,-4,-3,-7,-4,4,7
6,1,8,-4,-5,-3,-11,0,7
3,5,1,5,2,-4,-8,0,7
-5,-4,8,4,1,2,1,-1,7
-3,-2,20,2,0,-4,2,0,7
-6,-3,2,4,1,-5,5,0,7
-2,-6,-25,-16,-6,11,0,1,7
-16,1,4,-3,-4,-10,-12,-1,7
24,6,-4,-4,0,-7,-4,-3,7
-15,4,10,10,4,4,10,-2,7
9,-2,3,-3,0,3,10,2,7
-2,2,24,0,-2,-8,-16,2,7
-11,-7,-42,1,-7,-14,-17,0,7
0,-2,-23,-8,-1,6,13,-3,7
0,0,-7,0,1,0,-3,1,7
-5,-1,4,2,1,12,21,-2,7
7,4,21,2,4,-9,-23,1,7
11,0,4,3,1,3,7,1,7
-8,-9,-6,1,-1,2,8,-3,7
-7,3,-12,-1,3,-5,-20,1,7
6,1,-3,-11,-6,12,20,-3,7
1,-8,-11,-3,1,3,-8,-1,7
-23,2,18,0,-2,-11,-7,2,7
9,-3,9,4,1,6,18,-1,7
18,5,-15,5,4,4,5,3,7
-7,-6,-40,-12,-1,-4,-2,-2,7
6,12,48,9,3,-3,-10,0,7
2,-2,-18,-2,-2,-2,-6,-4,7
-8,-9,5,0,0,-4,-2,-1,7
-2,-1,41,4,-2,13,16,-2,7
-4,-3,-28,2,-1,-8,-4,-2,7
15,5,15,-5,-4,-3,-1,-3,7
0,-8,-2,3,2,3,0,2,7
-13,-2,-9,-7,-3,2,9,-1,7
24,1,19,5,1,-5,-9,-2,7
-14,-8,-31,-10,-1,-4,-6,2,7
-4,2,-29,-1,1,2,5,2,7
-8,-7,-11,-2,-3,-5,8,-1,7
1,2,47,3,-2,-9,-11,-4,7
8,8,-26,8,8,17,1,-1,7
-6,-1,6,-11,-5,-5,-5,-1,7
0,1,-18,-7,1,5,3,-2,7
-14,-15,-19,-5,-5,-2,11,-3,7
-11,-1,20,7,3,-11,-10,-4,7
8,1,25,5,-1,14,20,-4,7
17,6,-6,4,0,-18,-35,5,7
7,2,-4,-8,0,4,4,1,7
-3,5,0,-1,-3,6,9,-7,7
19,0,-12,-4,-3,-10,-6,-3,7
-11,2,18,3,-5,-17,-6,0,7
-15,-3,-23,0,4,15,7,-3,7
3,3,42,0,-5,-6,-7,1,7
-3,0,-33,3,1,2,0,-8,7
9,-4,6,-7,0,0,5,-4,7
2,-2,-21,-2,-3,-13,-14,-4,7
-4,-6,1,-5,1,6,14,4,7
3,14,39,4,2,2,-3,0,7
-15,-1,-8,-5,-2,0,-4,-2,7
-1,-7,-12,4,3,4,1,0,7
4,11,10,6,0,-1,5,-2,7
-3,-10,2,-17,-2,-8,-9,1,7
7,-1,-7,-8,0,6,2,-4,7
8,3,-5,-7,-3,6,8,-3,7
8,-3,-5,1,-4,-5,-1,-5,7
-15,-4,21,1,-1,-6,-9,-1,7
0,2,-14,-1,-1,3,2,2,7
3,-3,-38,-8,-4,-1,-1,-4,7
-3,-14,-9,-4,-4,-4,-9,-4,7
-15,-8,-7,3,-1,0,6,-3,7
-2,10,55,13,4,2,-1,-1,7
1,-1,-4,-1,-1,-12,-15,0,7
4,3,-21,2,2,-4,-9,6,7
-6,-4,1,4,1,7,8,-1,7
-6,-6,-11,-7,-3,2,1,1,7
9,8,-14,4,-1,-2,7,1,7
-14,7,12,0,3,0,11,-3,7
11,-7,-23,-2,1,10,13,0,7
-1,-1,11,-1,-4,-17,-22,-3,7
-5,-8,-23,-5,2,17,9,-1,7
15,2,13,7,0,-7,6,0,7
-4,-6,-43,-12,-4,-5,-7,2,7
-5,-7,-4,-3,-3,0,15,5,7
0,3,25,2,0,-2,2,5,7
-11,-3,9,2,2,9,6,-4,7
-6,4,14,1,-2,-5,-6,-1,7
-1,-4,-10,-2,-1,-1,0,-4,7
2,4,19,4,0,-5,-2,-3,7
2,-4,-11,-8,-7,0,-10,2,7
3,5,12,2,2,4,14,-2,7
5,-1,1,6,2,-11,-16,0,7
-5,5,-2,-5,1,12,14,-6,7
-6,-17,-45,-11,-7,-9,5,-2,7
-7,-9,2,4,-3,-9,-19,-4,7
-6,2,15,0,-2,11,17,-2,7
4,4,54,8,2,-4,-3,-2,7
2,3,-8,0,4,-4,-2,2,7
1,-6,-32,-13,-8,-6,1,3,7
-21,-5,-30,-1,3,8,-4,-1,7
-5,-5,10,3,-5,-8,-8,7,7
6,9,49,5,2,6,9,0,7
4,-3,-14,2,3,0,-2,-1,7
13,7,-13,-1,-5,-3,-1,0,7
-12,-7,-15,-7,-4,-4,-22,-2,7
-2,3,11,1,0,8,12,-3,7
15,-1,9,5,5,-13,-13,-2,7
16,9,12,1,2,5,11,-3,7
-20,-3,-17,-4,-2,-9,-17,0,7
4,0,-12,-2,-2,-1,1,1,7
-3,9,18,2,-4,-6,-3,-2,7
6,-4,4,0,0,-1,5,-4,7
1,2,-8,1,3,6,6,-1,7
-1,0,-12,-4,-3,-8,-12,-4,7
-5,0,50,3,3,7,8,0,7
-15,0,-39,-8,0,9,13,3,7
8,-2,5,6,1,-11,-17,1,7
3,-2,20,13,-1,4,4,0,7
-6,-8,-47,-11,-3,-7,-8,0,7
13,0,26,6,1,2,4,0,7
7,3,12,-6,2,8,13,2,7
-2,-4,-24,-12,1,-3,-3,1,7
-7,8,30,26,-1,-3,-3,0,7
4,-6,-41,-28,-4,0,0,-3,7
1,2,14,-3,-4,-1,7,0,7
-5,-11,-34,10,3,5,-9,-2,7
9,5,6,4,0,-1,-8,4,7
6,6,9,4,-1,-1,2,-5,7
-1,-2,23,-1,0,0,4,-3,7
-15,-7,-6,-6,-3,-7,1,2,7
-17,-9,-24,-13,-1,8,12,0,7
-8,-1,28,12,2,-2,-3,2,7
10,1,-11,4,2,7,-8,0,7
6,0,-7,-2,-1,0,4,-1,7
9,2,13,-2,3,-2,1,-2,7
1,10,18,-5,-6,-8,0,1,7
0,1,-27,5,0,1,5,-1,7
-1,0,-23,-18,-2,-2,-6,1,7
2,-1,11,7,-1,4,4,-5,7
-9,-12,-3,2,0,-3,-12,-1,7
-10,-3,-9,-6,-2,-1,6,-1,7
15,0,35,-6,-2,-5,-7,-2,7
-1,16,17,-9,-2,4,0,1,7
5,-2,-12,8,5,6,4,-2,7
-5,-17,-19,-3,-3,0,4,-1,7
-13,1,-16,-5,0,-5,-3,3,7
8,-2,-12,2,-2,0,-1,-1,7
4,-1,7,-4,-1,-11,-9,-3,7
10,16,24,-1,-2,-5,7,-4,7
-25,-9,-6,5,1,10,9,4,7
-1,8,45,10,3,2,4,-3,7
2,4,-8,4,1,0,-1,2,7
5,-2,-31,-4,-2,-22,-20,-2,7
6,-5,-13,-4,-5,3,5,-5,7
-4,-8,-18,1,2,8,-2,1,7
-1,4,35,4,2,0,-2,-1,7
6,2,-1,-1,1,0,0,2,7
4,7,34,11,0,-11,-10,-3,7
-9,-16,-41,-14,-7,-5,3,2,7
2,-5,-20,11,2,11,9,-1,7
-11,-6,6,5,-2,2,-3,-2,7
3,5,26,-1,-5,-11,-4,-2,7
14,10,-24,-4,0,-7,-5,-1,7
-8,-10,-7,-8,-2,-2,-13,-2,7
-19,-9,-15,5,-2,8,8,-1,7
-4,0,14,-2,2,3,6,-2,7
6,-1,2,8,1,-1,11,-2,7
7,9,9,8,5,5,-26,2,7
4,5,30,-10,-3,-5,7,1,7
3,-9,-90,-14,-4,-3,2,-1,7
-7,2,-1,-5,-3,1,1,-3,7
0,-6,4,-5,0,-6,3,1,7
5,2,43,14,5,3,6,0,7
-3,13,35,1,-1,0,-15,1,7
2,-19,-50,-11,-6,-7,-8,-1,7
-8,-4,-5,1,-2,-1,12,0,7
-7,-2,-27,-5,0,0,-8,0,7
5,1,38,4,2,1,4,0,7
-1,8,16,3,3,-2,-10,0,7
0,-1,-1,-1,-2,1,4,2,7
-1,-4,40,-12,-1,-1,-3,0,7
-4,-2,-47,8,1,3,2,-1,7
-9,-19,-4,-6,-1,0,2,-3,7
-5,-9,-29,-10,-6,-11,-10,0,7
20,5,-9,7,-2,3,8,-2,7
2,8,52,7,5,-5,-2,-1,7
4,16,22,4,-1,14,-17,4,7
-8,-6,-47,-13,-4,-3,8,-1,7
5,-9,-8,-8,-4,1,3,-4,7
-2,-4,-8,-5,-1,7,9,5,7
-7,-1,-1,2,2,5,12,-3,7
2,1,37,6,-1,-7,5,-4,7
1,6,24,5,0,-4,-18,-2,7
8,-1,-34,0,-1,3,8,1,7
-4,5,-6,-9,-3,-5,-4,-1,7
10,0,18,5,1,15,14,2,7
-5,-4,-18,-14,0,-13,-8,-3,7
-15,-8,-1,31,-1,0,-12,-3,7
3,-7,8,-14,-4,-3,-3,-1,7
-11,2,14,-2,-2,-9,-12,-2,7
8,3,-30,4,1,-2,-9,-2,7
2,6,19,-13,1,2,-1,-1,7
-14,-9,-35,1,-2,-10,-2,1,7
19,5,22,-1,2,1,6,1,7
-14,-3,-27,3,3,10,11,4,7
12,7,13,0,-2,-4,0,2,7
-3,-7,-20,-15,-4,3,8,-2,7
-16,-3,3,2,-2,0,-12,0,7
-8,-4,-1,1,-1,-2,-2,0,7
12,-1,-3,-4,-1,-4,6,-2,7
2,7,28,12,5,1,0,2,7
6,4,21,3,0,-2,-3,-5,7
4,13,-22,9,6,7,16,2,7
-9,-26,-59,-36,-13,-14,-22,-1,7
-5,-2,21,-2,-6,-7,-12,-3,7
-13,-7,-10,0,-2,-2,14,-3,7
0,-2,10,11,0,7,0,0,7
3,9,19,-1,3,1,-10,-2,7
10,4,-11,6,-3,-3,5,-3,7
1,0,15,10,2,5,7,2,7
-4,7,44,3,2,-6,-10,-5,7
24,2,-84,-9,-1,4,7,1,7
-26,-18,-16,-5,-2,-2,0,-1,7
-24,-15,-21,-9,-9,4,3,-2,7
-5,-7,15,-5,-1,1,14,-2,7
2,4,34,11,0,-2,-14,-7,7
23,14,23,2,1,-17,-9,1,7
14,9,-2,-5,0,2,4,-1,7
3,5,13,7,-2,1,-1,0,7
-24,-11,-18,-6,-2,0,7,0,7
5,-2,0,-4,1,2,1,1,7
-8,-1,-18,-14,-3,-9,-26,-3,7
3,0,-1,-8,-6,2,4,2,7
-3,9,37,2,2,-1,7,1,7
-2,-1,11,-2,-1,2,4,3,7
5,6,19,7,3,-1,2,1,7
5,-9,-35,-6,-2,-6,-14,-3,7
9,7,7,4,-1,2,6,-2,7
-27,-8,-43,-12,-2,-8,-15,-4,7
9,-9,-16,-3,-3,-1,2,1,7
-18,-6,16,3,0,-2,0,0,7
6,2,14,12,3,7,5,1,7
7,12,24,2,2,-2,4,-2,7
8,2,-37,4,2,-9,-12,-1,7
8,-4,-11,-22,-2,-6,-15,4,7
-13,-6,-7,-5,-4,-6,-3,0,7
5,2,29,10,5,14,12,-2,7
-3,-6,-18,-9,-4,2,7,1,7
2,3,-11,4,-1,5,6,1,7
-2,-1,17,0,3,-10,-7,2,7
6,5,-1,0,0,12,1,-1,7
-9,-6,8,3,-2,-5,0,0,7
0,-1,-10,-1,-1,0,2,-2,7
2,1,-4,-1,-1,1,1,0,7
13,5,1,4,-1,0,3,-2,7
2,3,-7,-2,2,-6,7,3,7
-21,-5,-2,-2,-5,-5,-20,-3,7
-4,-6,15,-1,3,9,6,-1,7
-8,-3,-3,12,-3,-6,-13,2,7
5,9,13,4,1,11,16,-2,7
9,-3,-47,-7,1,1,12,3,7
-10,-3,12,15,-3,-8,-11,-4,7
9,-2,24,0,0,0,2,4,7
0,5,-23,-6,-3,-12,-9,1,7
-8,-2,9,8,4,9,7,0,7
4,-3,0,-2,-1,12,3,-3,7
5,5,-1,-3,4,-3,-2,1,7
1,7,12,9,0,-4,-11,0,7
-9,-4,3,-4,-1,0,5,-3,7
2,6,5,-8,0,7,21,-4,7
6,-3,-6,-1,2,-6,-3,-2,7
-5,1,35,14,0,8,-8,-2,7
1,-3,-44,-18,-2,-14,2,-5,7
0,-6,9,6,-1,14,4,1,7
-6,5,23,2,-1,-5,0,-3,7
15,2,-29,-6,0,-3,-1,0,7
0,7,16,6,1,-1,6,-3,7
2,-6,-36,-12,-3,-5,-7,-3,7
-5,-5,9,5,-2,0,1,-2,7
2,1,20,-6,3,1,-1,-3,7
-8,0,15,9,-3,-1,2,-3,7
-3,-17,-47,-10,-2,-14,-21,5,7
-2,1,-6,-7,-4,4,7,-4,7
5,4,15,7,3,2,2,3,7
-5,1,23,1,-2,3,0,0,7
-2,2,6,3,-4,-11,-18,-5,7
-8,-8,-19,-6,2,1,1,-1,7
-8,-6,8,0,-2,10,10,0,7
9,4,2,-1,2,-5,-5,-5,7
5,8,18,3,0,7,5,-1,7
7,-2,-33,0,0,-4,-2,1,7
-10,-8,-6,-13,-2,-3,-1,-3,7
12,-1,8,17,-2,4,10,2,7
-17,5,11,-6,0,-2,3,-2,7
-5,2,10,-14,-1,3,2,3,7
13,-1,-25,11,0,-2,-3,-1,7
-7,-2,-14,-18,-1,-4,-12,-1,7
5,-6,18,5,-3,-10,0,-1,7
-21,-2,20,5,0,-2,-7,0,7
5,-5,-8,0,-1,4,13,0,7
9,-4,-16,-10,0,-3,-6,-5,7
7,6,9,0,-1,-3,3,4,7
-16,-9,3,1,4,19,14,-3,7
6,2,2,-4,-1,-5,-1,0,7
12,6,-16,4,-1,-6,-17,-1,7
-24,-13,-28,-9,-3,-1,7,-3,7
9,2,-4,6,-1,-3,-2,-4,7
-12,-2,16,-1,1,0,-4,-4,7
4,-5,-5,-5,-6,1,-4,2,7
-1,3,11,5,5,0,-11,-5,7
12,9,29,3,-1,-2,-12,-2,7
-6,-8,-49,-11,-3,-11,-6,-4,7
-7,2,23,2,0,4,13,1,7
-4,-1,0,8,0,3,6,2,7
3,-5,-5,-7,-1,-3,-5,-2,7
-11,-3,11,-2,-1,-4,-8,0,7
-1,6,15,3,2,6,-2,-4,7
0,-1,6,0,-1,-2,-1,-1,7
13,1,-44,2,-2,0,2,-1,7
-3,-1,-1,-11,-3,-2,-1,0,7
-2,-4,14,3,0,0,0,-1,7
-3,0,-3,-7,0,2,3,0,7
10,10,24,8,2,-3,6,-4,7
-24,-4,-20,1,0,-2,-3,-5,7
-9,-12,-13,-3,-5,6,-13,-3,7
9,2,19,2,-3,-2,-5,-3,7
5,0,15,4,-2,-8,-17,1,7
-6,-8,-40,-2,5,7,15,-3,7
-4,-3,4,-4,-3,-7,14,0,7
8,3,-4,-2,0,14,8,-2,7
2,0,10,-3,1,1,0,0,7
11,13,87,15,1,-3,-12,-2,7
-1,-1,-67,-7,1,3,6,4,7
-6,-6,18,-3,-5,-11,-6,-3,7
2,-1,-27,-1,-3,6,-10,2,7
8,8,-1,0,-1,3,-1,0,7
-6,1,18,6,0,-10,0,0,7
-3,-2,9,-2,-1,1,-4,1,7
-12,-6,-24,-1,1,-2,9,-5,7
3,-4,2,-11,-3,-3,-4,0,7
23,9,41,5,1,7,3,-2,7
2,9,-39,-4,2,-6,-3,2,7
-2,-11,-23,-6,-4,0,3,-3,7
-27,-13,-12,-4,-2,3,-12,-1,7
2,5,0,5,4,0,-1,3,7
0,3,11,-1,-2,-7,-3,0,7
11,8,88,10,1,-3,1,3,7
6,-4,-84,-7,0,5,15,1,7
-8,-2,16,-3,-1,-5,-6,-3,7
5,2,17,19,1,-2,-1,-2,7
-4,-2,-27,-8,0,0,1,3,7
8,6,39,5,-1,10,14,-1,7
-5,-5,-4,0,-3,-7,-12,-4,7
6,6,1,0,0,-5,1,-2,7
-24,-12,-34,-7,1,16,10,-3,7
6,2,24,6,-2,-1,2,2,7
-15,-7,-26,-9,-3,-1,1,-2,7
5,4,7,-4,0,-3,1,0,7
-7,-6,-1,3,0,-5,2,-5,7
9,-1,11,2,3,1,6,1,7
5,14,-14,-12,-5,2,-3,1,7
-14,-9,-9,-10,-1,-4,2,2,7
-5,0,-6,0,-1,-2,-16,-3,7
-3,-6,1,-9,0,-3,1,-2,7
6,1,22,10,2,7,14,-2,7
1,0,-26,-4,6,0,5,1,7
8,7,-18,9,-1,-11,-20,-5,7
-6,-10,0,-7,-2,4,1,2,7
2,-1,11,-13,-2,-5,5,1,7
-14,-3,-2,-7,-3,10,-4,2,7
0,2,11,2,-1,-11,3,3,7
7,6,4,3,-1,-6,-10,-4,7
-8,-4,-8,5,1,2,3,-2,7
16,5,30,15,6,7,12,-3,7
-17,-7,-29,-26,-9,-7,3,0,7
14,7,-15,-2,-3,-16,-35,-3,7
-23,-12,-34,-6,1,1,7,-4,7
7,-1,1,0,-3,-5,-7,-1,7
1,1,16,7,0,6,3,2,7
2,3,8,3,0,1,8,-5,7
4,5,50,29,3,0,-10,-1,7
1,4,14,-22,-7,-5,-16,1,7
-7,-15,-88,-18,-1,-2,9,-1,7
-16,-10,8,10,-6,2,6,2,7
14,-2,-5,-1,4,-5,-13,-3,7
-13,-5,3,2,-2,3,5,-1,7
17,11,32,3,1,-2,1,0,7
-7,-2,9,8,0,2,6,1,7
4,0,8,-3,-3,8,4,0,7
5,2,-74,-13,-7,-27,-40,-5,7
-13,-7,6,-2,-1,10,10,-2,7
-18,-6,-2,-3,-2,-4,3,-4,7
6,1,1,-1,1,6,16,0,7
0,-2,7,4,0,3,5,-3,7
5,-6,1,5,0,-8,-11,-1,7
9,3,8,1,0,-4,-1,-1,7
3,6,12,-3,-1,6,-3,-4,7
-5,-2,-5,0,1,7,5,-3,7
0,2,-10,0,-2,-9,1,3,7
-7,-5,1,2,0,20,22,0,7
-9,-7,-12,4,-2,-17,-17,1,7
10,3,9,5,0,-6,-26,2,7
3,8,26,13,-1,6,11,-3,7
7,-1,-5,-5,-3,-16,-11,-1,7
-6,-13,-24,-1,-3,6,11,1,7
-11,-6,-18,-8,-1,3,7,-3,7
0,-1,22,-2,-3,-13,-27,4,7
-14,0,-22,-3,1,8,4,-1,7
14,10,15,5,2,0,-3,0,7
5,5,40,5,-1,3,9,-4,7
8,0,-26,-8,-1,-1,0,-1,7
3,1,15,0,2,-1,-3,4,7
-17,-3,-5,-9,-2,-2,-8,-2,7
-1,-5,-16,10,2,-4,11,3,7
-9,4,17,1,0,24,18,-2,7
8,4,-1,-2,-3,-9,-17,0,7
1,-2,-7,-3,-1,-5,-7,2,7
1,1,-1,4,0,0,5,-1,7
-9,-9,-10,-1,-1,-6,5,-3,7
3,0,4,-4,-2,-1,4,-1,7
15,2,8,-4,-3,1,10,2,7
-14,-14,-49,-13,-6,-1,-7,-4,7
9,-5,23,16,2,0,4,3,7
-7,7,-6,0,2,1,-2,3,7
15,7,-2,1,-1,0,7,0,7
-7,-9,4,0,-1,10,8,2,7
-1,0,0,-4,0,-11,-14,0,7
4,0,-4,-1,-4,-8,-13,-3,7
2,-2,-2,-4,2,-1,-11,0,7
0,4,15,4,2,11,15,-1,7
13,-1,-11,-8,-4,-22,-18,0,7
-25,-2,11,3,2,4,7,-4,7
-12,0,-1,-6,-1,-3,3,-1,7
17,4,-26,-2,2,6,1,-1,7
-17,-9,2,6,3,6,6,-2,7
10,-1,-11,-12,-4,-7,-6,-2,7
-19,-7,-5,-3,-5,-6,0,-5,7
3,3,49,3,-1,-4,-2,-4,7
8,7,-9,3,3,10,-2,1,7
21,18,29,6,1,-2,-1,-2,7
-24,-26,-83,-26,-4,5,21,-2,7
8,-2,-8,-1,-2,-13,-32,0,7
-11,-1,12,-5,0,-5,0,-3,7
7,-1,5,0,1,7,5,-2,7
1,12,42,1,3,7,0,1,7
1,-1,-26,-14,-5,-5,12,3,7
9,1,8,-4,-1,9,8,-2,7
-9,-2,-3,-12,1,5,1,3,7
5,0,-1,5,-2,-13,-8,-4,7
-13,-8,-13,-5,1,5,9,4,7
3,0,0,2,1,7,-3,-2,7
20,11,29,7,-3,-10,2,-1,7
4,0,-27,2,1,7,-1,2,7
-8,-2,57,12,-1,-7,-5,-3,7
-11,4,7,-5,0,15,9,-1,7
-6,-13,-64,2,0,4,21,0,7
9,4,22,5,2,-8,-21,0,7
0,0,-27,-2,-3,-3,-8,-1,7
-5,-7,11,-4,0,-6,5,3,7
-7,-3,6,-6,-1,0,-7,-4,7
10,12,17,1,1,-3,8,1,7
17,-4,29,5,5,3,11,-4,7
-13,5,-14,-6,-2,-6,-12,1,7
0,-3,-2,-1,0,3,-5,0,7
-1,-5,-10,-1,-4,-6,-6,-3,7
-9,0,14,-3,-2,0,8,-5,7
17,7,15,0,-5,3,6,-4,7
-4,-3,-23,-2,0,-2,8,-1,7
-13,-8,-3,1,-2,-10,-16,-2,7
-16,-4,-20,3,4,18,18,2,7
1,5,39,4,1,-10,-9,-1,7
11,-6,-14,-3,-2,-5,-18,-1,7
15,3,-8,2,0,0,3,2,7
3,-5,-21,-6,-9,-8,9,-4,7
4,1,24,3,0,1,6,3,7
-7,0,-1,2,1,0,0,0,7
-6,0,8,5,1,2,-2,2,7
4,3,38,-7,1,1,-4,4,7
-1,0,-51,-4,1,-1,5,-2,7
-2,-3,9,-6,-7,-13,-24,3,7
-6,-9,-35,-6,0,3,12,-3,7
7,4,-8,-1,-1,10,-9,0,7
1,4,12,2,0,-18,-30,-4,7
5,4,8,5,1,3,-3,-1,7
-44,-10,7,-1,-3,-3,-3,0,7
-2,-7,9,-1,0,-1,3,-3,7
3,-7,-26,-4,-1,5,11,0,7
5,6,-5,2,2,5,3,1,7
23,8,28,1,0,4,7,1,7
-8,-3,-21,11,1,-3,3,0,7
0,7,0,-8,-4,-5,-41,-8,7
10,-1,-5,-2,1,0,16,-1,7
-20,-8,-1,-6,-3,9,6,1,7
5,9,28,11,4,0,7,-2,7
2,-7,-27,-7,-2,-5,15,-1,7
3,-3,18,1,1,-8,-22,0,7
-17,-2,10,0,-3,-2,-3,-5,7
2,-3,-14,11,1,-9,-7,0,7
-27,-6,-2,-12,-2,15,30,-3,7
9,-1,5,8,3,13,-18,-2,7
10,0,-10,-4,-2,-1,3,1,7
-1,11,18,-3,-2,-4,-2,-6,7
9,-2,-5,9,2,11,13,3,7
-7,-14,4,-6,-5,-15,0,-4,7
-7,6,-3,1,1,2,-6,-1,7
0,-6,-23,-13,-4,-6,-9,0,7
6,-1,-19,3,0,6,9,2,7
1,-4,-23,-3,1,1,12,0,7
14,10,29,7,1,-4,-4,1,7
-10,2,5,-11,-3,-4,-1,-3,7
13,-3,0,-5,-1,-6,-9,5,7
-30,-11,4,1,-1,5,9,2,7
12,4,12,1,2,-3,-16,-1,7
-10,-6,-41,-1,-2,16,9,4,7
-1,-2,9,4,-2,-16,-15,-1,7
8,13,11,1,2,4,14,0,7
13,-1,-7,-1,1,-6,-4,-4,7
-5,-13,-3,2,1,7,10,2,7
-5,4,0,4,-1,2,-1,-1,7
-7,7,63,3,-2,-8,-3,2,7
13,-9,-72,-2,0,8,10,2,7
-4,3,35,3,1,-8,-4,2,7
5,-2,-6,-7,-1,6,-11,-4,7
-5,3,-28,-9,-2,-1,14,1,7
-6,-6,7,1,-2,-2,4,0,7
11,0,1,-1,-2,-6,-9,1,7
7,2,19,12,2,5,12,-3,7
-36,-9,-10,-11,-6,-6,-6,0,7
0,1,1,-4,-3,1,5,-1,7
12,3,0,2,1,-2,-5,-2,7
-7,5,14,5,-2,-9,-12,0,7
6,-13,-27,2,-1,7,0,0,7
17,9,5,6,-1,-11,-6,-5,7
-26,-1,25,-5,-1,1,2,-6,7
6,3,11,-1,2,1,4,1,7
6,3,-18,3,-1,5,2,-4,7
-10,-3,43,-8,-5,2,-11,0,7
14,6,-38,4,-2,-5,-1,-4,7
-12,-15,-47,-18,-3,-8,1,0,7
3,5,21,8,0,-8,-2,-2,7
11,5,-21,-5,-2,6,7,0,7
-1,-7,10,2,0,1,-5,-3,7
-28,-5,2,-2,2,2,-2,0,7
-4,-2,1,2,-1,2,10,4,7
-5,0,16,15,0,-10,-1,-1,7
8,1,7,-6,-1,8,-12,-1,7
13,-8,-35,-4,-2,-3,7,-2,7
8,-1,-13,-4,-2,1,-3,-4,7
-15,-1,11,3,2,-1,10,-2,7
-4,-1,6,7,1,-7,-5,1,7
2,4,26,7,0,2,1,-1,7
5,-5,-2,-26,-3,-2,-17,-3,7
-10,-5,-36,-4,0,3,0,-1,7
2,-2,-3,-3,-2,-7,-6,3,7
10,4,26,9,-2,-3,0,-2,7
2,7,16,10,2,-1,5,-1,7
-11,-5,11,-2,3,7,-5,-2,7
1,-3,-18,-7,-5,-9,-1,0,7
1,-6,-12,5,-5,-3,-10,-2,7
4,2,-1,-2,-1,4,4,-4,7
-2,-2,13,8,1,6,0,-1,7
-6,5,-2,0,6,-4,-6,3,7
3,-3,-9,-9,-3,-3,4,1,7
5,-4,-5,3,-3,-3,-2,-3,7
0,12,19,6,3,5,3,0,7
-6,-8,-36,-15,-10,-15,-3,-1,7
-3,-5,27,0,2,3,14,1,7
-10,2,-11,2,3,16,-15,-4,7
17,-2,-23,-10,-5,-19,1,0,7
-13,-1,4,4,1,17,4,1,7
0,4,0,-2,0,-5,11,-2,7
-15,-2,16,13,0,4,1,-2,7
8,6,41,-7,-1,-6,-1,1,7
5,-2,-36,-8,-3,2,0,-1,7
-7,2,45,9,3,4,2,-2,7
2,-6,-34,-6,-3,-5,1,0,7
0,-2,-26,-5,0,6,-1,-1,7
1,3,9,7,1,-7,-4,-6,7
-8,-2,-1,-15,-2,9,3,-2,7
0,-1,18,6,-2,-5,1,-1,7
-3,-2,8,0,-5,-5,-15,0,7
9,-3,-6,3,3,6,7,0,7
-10,6,9,7,-1,-9,-11,-1,7
7,3,-16,-13,-2,-8,2,3,7
-1,-12,-31,-6,-4,2,2,-4,7
-3,-4,0,-4,-1,1,4,-1,7
7,2,-8,5,-1,10,10,0,7
-9,-1,-12,-6,-7,-24,-45,-2,7
-2,-9,-5,-3,5,15,15,4,7
-8,5,34,4,0,-10,-1,-1,7
-9,-2,-23,3,-4,-3,-4,1,7
14,-6,4,-2,2,11,14,2,7
-4,5,9,-6,-4,-11,-9,-2,7
2,-3,6,1,5,6,3,2,7
7,9,-21,11,2,-3,-12,3,7
-4,1,30,2,1,1,-4,-2,7
-12,-2,-24,-1,-2,0,-1,0,7
7,2,23,-3,0,8,12,0,7
1,-12,-40,-12,-3,-6,-2,2,7
8,6,27,7,-1,-4,-15,-1,7
5,1,0,0,3,-2,13,-1,7
-2,-3,-12,4,-4,0,-14,1,7
1,-4,-9,-11,-3,5,3,3,7
-1,-2,-11,1,5,-7,-1,1,7
-11,0,31,3,-8,-9,-1,-2,7
5,1,-19,1,2,9,6,0,7
4,2,23,-6,-1,-6,-11,-1,7
-8,-6,-36,-4,-3,8,14,0,7
-2,1,42,3,2,-10,-9,0,7
-1,-3,-49,-9,-5,3,10,2,7
-7,-5,2,6,3,-1,-7,-1,7
0,2,9,-4,-4,-1,20,-1,7
1,2,11,27,0,-3,-29,-1,7
6,2,3,-9,-5,-10,4,-5,7
8,0,10,6,1,5,0,-1,7
-5,-10,1,-19,-1,-2,6,-7,7
-6,-3,-16,3,1,16,16,-4,7
10,-1,-8,-4,2,-13,-21,-3,7
5,4,-8,0,-4,-5,3,-4,7
-3,3,12,6,4,1,0,0,7
10,-7,-9,-1,-2,-2,1,-2,7
-19,2,13,-5,-2,1,2,3,7
-9,-4,-20,-7,-3,-1,-2,-2,7
13,-3,-11,0,-2,-3,-6,3,7
-3,-1,-1,-9,0,2,7,-1,7
-2,5,47,13,2,20,19,0,7
7,8,-4,-9,2,-11,-5,-1,7
-3,-4,-23,1,-5,-8,-15,-1,7
11,-7,-28,-1,-2,0,9,2,7
0,-2,10,1,0,3,5,-4,7
-6,-2,29,-6,1,8,13,3,7
-13,5,4,7,1,1,0,-2,7
3,0,-5,-10,-1,-7,-6,3,7
1,8,40,5,0,1,-2,0,7
18,-7,-34,1,-4,-7,0,-3,7
-11,-13,-47,-8,-1,-2,-3,3,7
-14,1,14,3,-2,12,4,-3,7
-1,-3,-2,-3,1,-6,-2,-7,7
-1,2,8,3,-3,-8,0,4,7
20,6,8,4,0,10,0,-2,7
-8,-1,5,-6,2,-2,-12,2,7
-3,-6,1,0,-6,-26,-26,-2,7
-10,-11,-31,1,2,11,-8,-1,7
6,3,-9,-3,1,3,10,1,7
2,6,16,2,-3,-7,-22,-1,7
7,-2,-42,-11,-2,1,9,-3,7
1,-6,10,-6,-1,9,3,-6,7
-8,-3,45,14,-3,-1,4,-4,7
5,-1,-21,5,1,-1,6,-5,7
-5,-3,-30,-3,-1,-5,-10,-2,7
0,6,22,1,2,-6,1,-2,7
12,-5,4,-6,1,4,5,0,7
-9,-2,-12,-5,-3,-8,-3,1,7
1,-4,20,6,0,5,3,0,7
5,1,3,3,-1,2,1,-2,7
1,10,19,7,3,0,-2,2,7
11,-3,-13,-3,-5,-17,-15,-4,7
-11,-1,0,-1,3,8,13,3,7
7,-1,-1,-2,0,6,1,-1,7
-16,3,6,-11,0,0,9,0,7
-5,-7,-10,-7,-1,0,-5,-2,7
3,3,2,5,-1,-4,6,0,7
3,6,32,1,2,0,4,-1,7
6,9,16,-3,-2,-6,3,0,7
-15,-13,-72,-4,3,17,14,-3,7
3,-6,-20,-11,-2,-3,-1,0,7
-7,1,27,-1,-6,-5,-4,-2,7
-1,-3,-20,-4,0,-2,-2,-1,7
15,15,29,9,2,1,4,0,7
1,-15,-30,-7,-1,1,-4,0,7
-16,-2,14,11,2,-4,1,-1,7
2,6,1,5,-2,-1,-14,-4,7
-17,-1,3,-7,-2,2,5,0,7
0,-4,12,3,0,-3,-1,-1,7
2,4,-27,-4,2,-2,3,0,7
15,1,5,27,-1,-4,1,-6,7
-15,3,-2,0,1,0,10,2,7
8,3,31,-1,-1,3,-34,-3,7
-5,-2,-1,-3,0,2,6,-2,7
2,-3,-24,-2,3,1,2,-4,7
13,0,15,-4,-1,6,18,1,7
-7,6,4,8,0,-12,9,-1,7
-3,-5,-2,1,-1,4,1,3,7
-3,1,-21,-7,-3,13,4,3,7
1,-7,11,-1,-3,-7,-11,-1,7
-1,0,7,2,4,10,9,2,7
-3,-2,-13,-1,-4,-2,5,0,7
-7,-2,-4,-5,-3,-16,-23,3,7
-2,-5,34,2,-4,-7,-9,-2,7
15,2,-49,-18,-4,2,-4,2,7
-16,-12,-16,-3,-2,-1,7,-1,7
1,1,-10,-4,-3,-1,10,-2,7
-2,0,28,16,7,9,1,-4,7
4,7,48,11,3,-3,-1,-2,7
1,0,-37,-13,-1,0,-1,-3,7
-1,-9,-20,-10,-1,-2,10,-1,7
1,5,2,3,-1,-4,-17,0,7
3,-3,5,0,-5,2,12,2,7
-13,2,25,12,3,-4,-12,-2,7
16,3,10,-8,-3,9,17,3,7
-9,-3,-22,-9,1,-6,-12,1,7
-24,-2,-7,-2,-7,-14,-24,-3,7
8,3,8,4,-1,1,-1,1,7
5,-7,-18,0,0,1,-1,0,7
5,-2,45,-12,0,-4,12,-3,7
11,11,-45,1,0,-2,-3,0,7
-5,-1,15,-2,-2,-7,-2,-1,7
-7,-5,-13,3,-1,9,6,-2,7
10,-3,-10,-6,-1,-1,-1,7,7
7,6,32,12,5,0,-7,-3,7
-5,-2,5,-8,-2,0,0,-4,7
1,8,14,4,0,-11,-23,1,7
11,-10,-29,-4,-1,1,3,3,7
-1,-7,2,-2,-1,1,16,-4,7
1,3,24,29,2,4,1,4,7
-23,-10,-10,-11,-2,-2,-3,-4,7
-7,2,-27,-4,-6,0,7,0,7
3,1,9,1,2,7,5,-1,7
15,-2,5,-7,-1,-2,-7,-3,7
-2,3,24,5,0,-10,2,-2,7
5,0,-23,-1,-3,-6,-15,-1,7
-15,-4,-21,-11,1,12,4,0,7
1,-6,-25,-8,-5,-13,-8,-2,7
-2,-1,11,2,1,-8,-17,-2,7
6,3,-1,6,0,4,-7,-8,7
-6,-1,23,-1,-2,-2,0,1,7
0,6,9,0,0,5,0,4,7
0,-2,-3,-3,-1,-2,2,1,7
9,4,12,3,2,-3,-2,-1,7
-17,-27,-29,-14,-5,3,4,0,7
-9,-2,-11,18,-2,-4,0,0,7
-20,-3,19,-3,0,8,14,1,7
3,7,16,3,3,16,10,-4,7
6,6,-3,-11,0,-3,-1,-2,7
10,2,-15,-8,-4,-9,-7,3,7
3,-7,-5,1,-1,1,5,2,7
-7,6,-5,3,0,-1,10,-1,7
6,1,8,8,1,-8,-16,-2,7
-8,-8,4,-9,-1,1,-6,-3,7
1,8,-6,0,-2,-3,-5,-1,7
-3,-8,4,-4,-1,2,6,2,7
-12,1,-14,9,-1,0,5,2,7
2,-5,-10,-15,-2,-3,-9,-1,7
2,1,14,8,-1,-4,10,-1,7
9,16,30,5,-1,-2,-30,3,7
4,-14,-71,-17,-6,1,3,-2,7
-17,-7,-7,2,2,-3,0,0,7
4,-8,-11,-8,0,14,11,-4,7
-10,-3,40,6,-2,-6,8,0,7
1,10,19,0,1,-5,-5,-2,7
20,12,-17,-12,1,2,5,-3,7
-18,-4,-23,-5,-2,8,-4,-5,7
-9,-5,-8,4,0,-3,4,-2,7
7,4,17,6,-1,-3,-5,1,7
-10,-13,0,-4,0,0,6,2,7
9,8,37,8,1,1,-5,2,7
-4,-14,-65,-19,-3,-8,-7,-1,7
-12,-1,11,8,-3,-1,3,0,7
12,4,4,5,1,0,2,0,7
-12,0,16,2,-2,-16,-25,1,7
11,5,3,-2,-1,10,18,3,7
-4,-8,-18,-5,0,-6,6,-1,7
-13,1,7,6,2,12,3,0,7
3,-13,-19,-11,-5,1,3,-6,7
8,2,-24,-1,-1,-4,8,-1,7
2,10,61,8,1,-1,-1,-1,7
7,2,-10,2,1,5,-2,-5,7
3,2,-11,-6,-4,-1,9,3,7
8,10,-2,2,1,-1,-13,-3,7
3,10,36,5,0,7,7,1,7
1,-10,-15,3,-1,4,6,-6,7
-16,-6,-12,2,0,-5,-3,3,7
1,-6,0,-7,-3,3,6,-3,7
4,-3,8,2,1,-2,-1,-2,7
-10,14,17,3,2,2,3,4,7
14,-2,-38,4,0,-5,6,3,7
-22,-6,0,-6,0,3,2,-1,7
12,-3,-9,2,2,-4,-5,1,7
4,7,26,4,-1,3,2,-2,7
16,6,-11,-1,1,4,3,-3,7
-20,-10,32,1,-6,-4,-31,-2,7
-4,0,-31,-9,0,-18,-2,-1,7
0,-5,-29,-7,-1,19,4,4,7
34,1,3,-1,0,-9,-15,-4,7
-47,-6,20,4,-1,6,32,-2,7
-34,-21,-56,-17,-3,2,-1,0,7
3,1,23,32,-3,-13,-28,-3,7
4,5,14,-7,3,6,12,-6,7
32,10,-7,0,1,-4,2,1,7
-7,5,40,9,1,3,8,-5,7
1,-3,-28,-12,2,-3,2,1,7
-4,3,4,-5,-6,-1,-12,2,7
7,-3,-8,3,0,-2,0,0,7
-3,7,34,4,-1,6,-2,-2,7
9,3,16,-1,1,-5,-4,-4,7
-9,-3,-24,2,1,0,0,3,7
8,0,-18,-11,-1,2,3,-4,7
14,3,-9,3,-4,-5,-5,-2,7
-15,-10,-5,-12,-2,8,14,1,7
-23,-5,26,3,-1,-21,-16,-2,7
-13,-8,-25,-5,-2,8,-1,-2,7
33,-1,-2,-3,-5,0,0,-3,7
5,9,21,5,5,-15,-16,-4,7
-11,-8,-23,1,2,12,14,-4,7
9,-1,9,7,2,2,5,3,7
3,11,-5,-3,1,0,5,-3,7
-6,-8,22,-9,0,0,-3,-1,7
-6,3,0,-1,0,-1,-7,2,7
6,-4,-24,-17,-6,-6,-7,-4,7
-5,0,-3,11,-1,0,0,0,7
1,-4,-19,-4,0,1,6,0,7
-14,0,10,1,3,5,-4,1,7
8,12,25,16,2,-8,-10,-3,7
-13,-10,-24,-13,1,8,-14,1,7
6,0,1,-1,-6,-6,-12,-3,7
11,4,50,16,2,5,12,-5,7
-14,0,-28,-9,0,3,7,1,7
14,3,21,2,-4,-20,-34,0,7
2,-1,-27,-7,-2,-5,4,0,7
-4,-5,-19,0,2,10,9,3,7
9,6,41,7,5,11,10,-1,7
-19,-7,7,-1,-1,12,18,-1,7
-3,-2,-30,-6,-6,-12,-21,-2,7
6,4,9,-5,-2,-6,2,0,7
9,-1,14,4,-1,-11,-18,2,7
-16,1,-13,3,3,10,11,0,7
12,-3,-8,-5,-2,1,6,1,7
10,6,-16,-12,-2,-3,-5,2,7
-11,-12,-3,14,-6,-8,-5,-3,7
-11,7,45,4,3,0,8,1,7
-8,-9,-95,-9,0,2,8,-1,7
-14,-4,46,12,-1,-5,-3,0,7
4,-1,-30,-4,1,4,0,4,7
7,-8,-3,-4,-2,-12,1,-3,7
3,7,-4,4,2,14,13,-1,7
7,4,-9,-2,-3,1,9,-1,7
-14,-4,12,-6,-4,-18,-61,2,7
1,-2,-11,3,-1,-3,5,-2,7
6,-1,20,2,0,3,4,-1,7
2,-2,10,1,1,6,11,0,7
-4,0,-8,-1,1,4,8,-1,7
18,14,10,-9,-1,-6,-11,-1,7
-10,-4,-8,5,-5,-8,0,-2,7
-31,-16,-8,-2,-2,3,-4,-1,7
4,12,33,0,-1,-5,8,-2,7
5,-3,-36,4,1,-6,-17,3,7
-1,6,45,-4,-4,1,9,5,7
12,-1,-20,2,2,-1,-4,-3,7
-5,-9,-9,-1,-1,15,26,0,7
0,13,12,18,0,-7,3,3,7
10,1,3,4,-1,1,-5,0,7
3,-5,-4,-14,-6,-6,-8,1,7
-8,1,-3,6,-1,-3,8,-2,7
-4,0,23,2,2,16,21,-1,7
-14,-20,-65,-16,-1,7,6,0,7
8,4,-2,11,0,-9,-19,-4,7
10,0,-6,-4,-1,0,12,0,7
-4,-9,1,-6,-2,-3,-4,-3,7
3,7,38,0,2,-5,-2,1,7
-3,4,18,3,-6,-12,-15,-4,7
3,-4,-43,-10,-3,-4,-7,-1,7
-18,-8,-7,-2,-1,15,4,-1,7
10,6,20,3,-3,-7,17,0,7
-10,0,7,2,8,22,20,-1,7
5,2,3,1,-6,-14,-26,1,7
-1,0,11,9,1,-6,-13,2,7
6,-1,-46,-12,-2,-1,1,-2,7
10,6,31,-11,-3,-7,2,-2,7
-15,-8,-34,-12,-2,3,7,-1,7
7,-7,-16,-7,-2,6,4,-3,7
-8,5,26,5,0,-1,-13,2,7
-2,-8,2,-2,-3,-6,-7,4,7
3,3,-18,5,7,-1,3,4,7
13,-2,0,-1,0,6,13,2,7
-22,-9,5,-5,-6,-19,-25,-4,7
10,7,7,0,-3,12,0,0,7
-5,0,-3,4,-1,2,22,-4,7
-3,-8,9,-3,4,9,-12,0,7
3,-2,-15,0,-1,-6,-8,-4,7
-1,-1,-1,3,0,-1,-3,1,7
8,8,39,3,-1,2,-4,4,7
-1,3,-10,-1,-4,-11,3,0,7
3,-10,-11,0,1,12,9,0,7
-14,2,-1,1,1,-3,-9,-7,7
8,-1,22,1,-3,-4,-13,-1,7
1,4,-24,-1,-1,-4,-5,1,7
6,4,18,-8,0,4,7,0,7
-3,-7,-41,3,-4,-2,10,3,7
-5,0,6,-6,-1,9,3,3,7
-6,2,38,1,0,-2,-1,-3,7
11,13,1,10,0,-4,-3,-2,7
-2,-7,-14,-4,1,-3,1,-2,7
-10,-3,-5,2,-1,0,3,2,7
7,4,-6,6,0,-11,-10,0,7
1,-1,29,3,0,3,9,1,7
-3,2,-7,-3,-1,5,-3,2,7
13,-8,-19,-8,-5,1,7,4,7
-10,0,-7,-4,-2,5,17,-4,7
5,6,44,5,3,-4,-16,3,7
-2,1,-12,7,-3,-6,-1,3,7
-14,-4,-1,-4,0,-9,-5,-7,7
5,-12,-19,-9,-5,3,14,0,7
0,4,20,0,-2,-10,5,-1,7
-5,-4,3,1,2,6,-13,1,7
3,5,14,-4,1,0,3,-3,7
0,4,-9,10,3,-4,-7,3,7
-7,-15,-28,-15,-4,2,9,0,7
4,2,11,-1,-3,5,4,4,7
10,0,-12,3,1,-3,-11,-1,7
-19,-3,24,-5,-2,-1,-12,-1,7
-9,-6,-8,15,-2,-15,-18,-1,7
5,2,-16,-10,-1,-5,-2,-1,7
-1,-4,7,4,1,12,23,-2,7
11,13,25,-5,-4,-8,-3,-3,7
5,-2,-22,13,3,-2,-2,-1,7
-21,-9,-11,-13,-2,10,7,-1,7
14,10,2,13,4,0,2,4,7
6,-5,1,-19,-2,5,-5,-1,7
-2,-6,-9,1,-2,-11,-12,0,7
-8,2,-14,3,2,-7,1,-2,7
0,-2,4,-13,-2,1,0,-1,7
15,2,-18,-5,-3,-1,0,-1,7
-2,7,18,-5,-1,10,10,2,7
-8,-9,-22,-1,3,-7,-12,-3,7
-6,1,1,-4,-5,-13,-22,-2,7
-1,-6,-2,6,2,-10,-7,4,7
2,9,-2,0,-3,7,6,-2,7
16,0,5,-4,2,8,4,0,7
-4,-1,17,1,-1,1,6,-4,7
-12,-5,-16,2,0,-7,-9,0,7
-4,-3,-24,-7,-1,2,9,1,7
9,-5,8,-2,-3,1,2,2,7
9,0,-7,3,-2,-2,0,-1,7
-6,4,-3,1,3,20,13,0,7
-15,-6,29,-2,-1,4,16,-2,7
-7,0,-21,2,-3,-16,-23,2,7
5,2,-1,4,0,-3,-11,-3,7
-6,-3,-6,-13,-6,5,12,2,7
-3,-8,26,0,-2,4,5,2,7
11,4,-34,-1,1,1,6,1,7
-2,0,43,-4,1,0,2,-1,7
-4,0,-32,-15,-2,-6,-8,-4,7
-3,0,37,1,2,7,-2,-1,7
6,1,13,6,1,-8,-3,-2,7
-2,1,-20,-7,-2,3,3,-1,7
5,-8,-16,0,0,-8,-8,-3,7
-17,-1,-11,-5,-1,8,6,-3,7
-4,-6,12,-5,-2,-13,-13,-4,7
11,6,-3,5,-1,-8,-27,-3,7
2,2,8,8,0,4,9,0,7
-8,-3,-1,-3,-3,-12,-3,-3,7
2,10,-9,1,3,19,19,2,7
3,-2,-6,2,1,15,19,-3,7
-2,-2,35,11,-5,-19,-19,-4,7
-1,3,-47,-15,1,7,-6,3,7
-2,2,29,7,-2,-4,5,2,7
-1,0,-29,-4,-2,-3,5,1,7
10,-7,2,0,4,9,6,-2,7
-2,-1,6,7,-1,-2,1,-3,7
-2,0,47,21,-5,-19,-9,-4,7
-10,2,-34,-7,-1,-10,-16,1,7
-3,-7,-5,9,-1,-2,-1,4,7
5,1,-5,-14,-2,2,-2,1,7
4,-7,8,-1,0,2,8,-2,7
-12,-3,16,13,8,7,10,0,7
3,7,-3,-5,-3,11,2,0,7
9,-2,9,4,-1,-13,-13,-2,7
-12,1,-34,-11,-2,1,7,-1,7
-8,-17,-5,-9,-6,2,6,2,7
4,-1,15,-3,-3,-7,-2,4,7
10,8,3,10,4,17,20,-2,7
8,1,-7,-4,0,-11,-12,-3,7
-2,3,-4,3,1,-12,-6,-1,7
0,-3,15,-1,-3,6,-8,-3,7
6,5,-6,-2,-2,-5,-2,2,7
-10,-5,-13,-12,2,17,12,-3,7
6,0,1,18,-2,-3,0,-1,7
-14,-7,7,6,-2,-2,11,-1,7
15,13,12,7,5,9,-10,2,7
-5,-4,37,-4,-1,-7,-8,2,7
-11,-12,-74,-18,-4,14,16,-3,7
4,3,-12,-1,-3,-17,-28,-1,7
-23,-10,-8,1,-3,-7,-3,1,7
11,5,10,11,2,-1,-9,0,7
-3,7,86,4,1,8,13,2,7
-8,-1,-53,-4,0,-20,-9,-5,7
13,-16,-29,-14,-5,-2,-7,-2,7
10,8,3,0,-1,10,6,2,7
-9,-6,9,-1,-3,-9,-14,1,7
-7,8,2,0,4,13,22,0,7
2,-1,20,8,3,-8,-5,-2,7
-6,-4,-6,-1,1,4,1,3,7
5,1,-5,-6,-2,1,4,0,7
9,5,14,4,3,3,4,-4,7
-14,4,-4,2,-3,-11,-9,-1,7
-3,-7,-36,3,-6,1,6,0,7
9,4,37,-1,-1,0,-5,-2,7
-7,-15,-55,-8,-1,9,5,-1,7
-2,-9,1,-5,-4,-12,-6,3,7
8,12,6,-14,-2,-9,-25,-2,7
-25,-3,30,11,0,-4,-3,0,7
-9,-2,2,3,1,6,10,-3,7
10,0,-18,-4,-2,5,17,-1,7
14,-6,-6,-2,1,5,5,1,7
-12,0,4,-1,-3,-4,-5,-4,7
3,1,26,-3,1,-2,-7,-1,7
4,9,10,4,-3,-11,-3,-2,7
-7,4,21,0,-1,8,14,-3,7
12,-6,-39,-4,-5,-17,-10,0,7
-7,-7,-9,0,3,12,-2,1,7
-6,-4,-10,-8,-5,-9,-3,-4,7
8,5,-5,7,1,-9,-17,3,7
3,-2,-1,-9,6,14,13,-2,7
-3,-6,2,-1,-5,-11,-2,1,7
-10,10,42,2,1,12,5,-2,7
1,-10,-32,-12,-4,-1,6,-4,7
11,9,-20,-4,-2,-5,-3,1,7
1,-1,-24,-8,1,1,6,4,7
-3,-2,2,8,1,2,0,1,7
10,-2,24,7,1,1,2,-1,7
5,2,-19,-1,2,3,-2,-1,7
-15,1,33,5,-2,-1,4,-3,7
13,3,-16,-2,0,-2,-4,0,7
-11,-6,-14,-6,-2,3,12,-4,7
20,-1,3,6,1,-8,-9,3,7
-12,7,10,5,1,-8,-15,0,7
-8,-5,5,0,6,23,20,1,7
9,6,23,17,-3,-1,-6,-3,7
-1,-13,-37,-14,-4,-6,-13,-3,7
-13,-9,-10,-3,-3,5,10,-2,7
-9,-12,-32,-6,-2,-13,-5,1,7
2,6,33,11,1,-7,2,-1,7
-7,1,-8,-1,-2,19,-3,-1,7
5,6,3,-7,-4,-10,-8,1,7
3,-9,-16,11,0,1,-5,-2,7
-7,-3,6,-10,-4,-4,-2,-4,7
9,-4,10,-8,-4,-4,4,2,7
2,-3,-36,-1,1,7,11,-5,7
4,1,25,2,-2,3,-6,2,7
-6,3,14,6,2,0,7,-3,7
-4,0,-33,-19,1,-7,-30,-3,7
23,4,15,2,-2,1,7,2,7
-5,-12,-11,-4,0,-10,-14,-1,7
-14,-4,-14,-3,-2,-5,-5,2,7
-1,0,13,7,-1,5,16,-1,7
12,7,11,8,3,5,-10,-3,7
6,7,4,-6,0,-3,-2,-3,7
-14,-4,-10,-1,0,12,5,-2,7
-12,-5,17,5,1,3,20,-4,7
10,-1,-21,-4,0,-14,-15,0,7
-7,-6,1,3,-1,17,2,0,7
4,6,1,-7,-3,1,2,1,7
-3,6,27,5,-1,-7,10,-1,7
-1,-10,-36,-1,-4,-21,-26,2,7
-8,0,9,-5,1,15,7,-1,7
17,0,-7,0,1,-8,3,0,7
-4,1,9,-1,-3,1,6,1,7
3,4,18,2,-2,7,-4,1,7
-1,4,7,5,1,-15,-17,0,7
-16,-12,-23,-20,-2,2,6,-1,7
1,-1,12,-3,-3,-7,-1,-2,7
5,-2,3,9,4,9,17,-1,7
-4,0,0,3,-4,-13,-16,-5,7
-6,-8,4,0,0,1,2,-3,7
1,4,-5,2,4,6,-3,-1,7
0,6,3,4,2,5,7,0,7
4,2,5,-6,-6,-10,1,-3,7
-2,0,-1,3,-5,-12,-21,-1,7
-5,-3,6,10,-2,-8,-1,-1,7
2,6,-25,-7,2,12,17,2,7
5,4,11,-1,2,7,0,-2,7
-5,-5,-27,-4,-2,-10,-13,-2,7
-14,-5,21,4,-3,7,2,0,7
-1,-4,4,-10,-4,-13,6,-1,7
6,1,12,8,1,8,14,1,7
5,8,-17,-4,0,-9,-11,-5,7
2,-3,1,-1,0,11,-3,2,7
-3,2,28,-4,-3,-8,-2,-3,7
2,-3,-13,5,0,-2,2,-4,7
-8,-8,-8,-5,2,5,6,1,7
-7,0,-22,-6,-5,-8,3,-2,7
-3,-5,-4,3,0,9,14,0,7
6,2,-1,-4,1,-12,-30,3,7
3,1,8,5,1,5,15,3,7
-3,2,13,-2,-1,-4,-4,0,7
-2,-2,-18,-11,-4,3,-10,1,7
5,-7,13,-1,-2,-2,8,-2,7
-9,-5,-23,0,3,6,6,1,7
-2,1,-9,15,1,0,1,1,7
-7,-3,16,-12,0,-3,-13,-5,7
-5,-3,-41,-18,-7,2,14,2,7
26,2,24,7,0,5,4,1,7
-3,7,22,7,3,-4,12,-2,7
-7,-6,-13,24,-3,3,-18,-1,7
-15,8,13,-5,2,0,-2,1,7
-13,-7,-2,-9,-3,0,15,1,7
12,-2,-9,-4,0,-5,-12,-3,7
-2,2,12,1,0,-5,6,0,7
5,2,-6,2,-1,-3,2,-3,7
10,7,-1,6,3,17,3,2,7
-2,-6,2,1,3,-13,-45,-2,7
2,0,3,-11,-5,-7,9,2,7
7,3,-6,4,-1,4,6,-2,7
-16,-1,12,0,0,-4,-7,-2,7
3,6,15,4,1,4,10,1,7
6,1,-15,-23,-4,2,-5,3,7
5,3,31,9,-1,-5,9,1,7
2,-1,-4,1,1,-3,-2,0,7
13,-6,-27,-1,1,2,-2,-2,7
-40,-10,-10,2,2,0,2,-5,7
-4,-6,-5,-17,-2,-6,6,0,7
3,4,10,3,-4,-3,-4,1,7
-15,-8,6,-3,-1,12,16,2,7
25,14,16,8,1,-13,-25,0,7
-4,2,8,-1,-1,-10,-19,-1,7
-3,-8,-49,-10,-2,5,4,-4,7
7,2,-2,-5,-5,2,4,-5,7
1,0,21,5,2,3,9,2,7
-6,-1,-4,3,0,2,-3,2,7
1,-2,30,2,-3,-13,-2,-2,7
-2,-3,-23,-15,-5,9,16,-5,7
3,-1,-1,0,1,11,-1,-2,7
18,2,-25,1,1,-3,-12,1,7
-20,0,27,5,0,-6,2,-3,7
18,-9,-28,2,0,1,-5,-1,7
9,5,36,5,-2,-13,4,-3,7
-13,-6,-8,-8,-1,-2,-20,-4,7
-1,0,-7,-3,1,9,9,-2,7
9,8,-13,1,2,-11,-14,3,7
12,-2,23,-3,-2,1,7,1,7
-8,-1,-19,3,-4,2,11,-1,7
-15,-2,3,5,2,9,-5,2,7
-2,1,17,0,5,3,6,-1,7
11,2,-19,-11,-4,-2,-2,-1,7
0,3,8,1,2,8,18,-4,7
2,4,0,1,1,11,3,-4,7
-3,-3,-11,-5,-4,-26,-21,2,7
-3,-7,15,5,-3,5,12,-5,7
-5,0,4,6,3,4,7,1,7
3,-1,-52,-6,2,-1,-8,1,7
6,5,37,1,1,15,16,-1,7
-3,-1,-14,5,0,-6,0,-1,7
-5,-9,-27,-7,-5,-5,-5,0,7
7,2,28,-6,-4,0,15,2,7
5,6,9,6,0,-6,-14,-4,7
-24,-12,-47,-12,-2,8,8,0,7
4,3,45,7,0,-3,-18,0,7
14,0,-33,-4,-3,-4,6,1,7
-4,1,23,1,-4,-10,3,1,7
-2,3,-8,9,0,7,5,-1,7
9,-6,-30,-10,1,8,17,-4,7
-6,-7,20,0,-2,-5,-11,-4,7
-7,-1,-24,-6,0,1,-2,-2,7
6,-4,16,0,2,-7,-11,3,7
-3,4,8,-7,-2,-4,-4,0,7
-1,2,16,8,-4,-13,-15,-2,7
-7,-6,-26,-5,0,14,24,-1,7
0,0,-3,-5,-1,-12,-27,1,7
12,6,20,9,2,10,2,-1,7
-8,-16,-53,-7,-3,0,2,1,7
-24,0,20,-4,-2,-6,1,-1,7
1,-4,-32,0,0,-9,-14,0,7
7,-1,9,3,3,17,18,-2,7
13,11,32,11,2,-15,-17,2,7
8,7,17,3,0,-4,-14,3,7
-17,-5,-25,-7,4,12,24,-2,7
-5,-12,-27,-1,-4,-18,-5,-2,7
-5,-4,-5,-7,2,24,10,2,7
-1,0,26,1,-5,-16,-19,0,7
-4,5,10,0,-1,3,-3,-2,7
6,7,2,1,0,-2,5,0,7
-2,-4,-14,-8,-1,-6,0,-5,7
5,-1,-3,2,2,0,9,0,7
5,8,14,16,1,10,-1,-1,7
-1,-4,3,-3,0,2,-2,0,7
-20,-3,18,1,-1,-2,6,-2,7
15,1,-20,-7,0,5,8,2,7
-22,-7,20,-2,-1,-12,-9,-4,7
5,-1,0,5,1,0,2,-2,7
16,16,30,-3,-3,6,8,0,7
-9,-12,-61,-11,1,-9,-17,-1,7
7,-7,16,0,-1,4,9,-3,7
-7,-2,-20,-7,0,0,0,2,7
-4,-1,7,1,-2,-10,-8,-2,7
-5,-2,2,4,-2,5,7,-2,7
8,3,-3,-1,1,6,10,0,7
-7,0,-2,0,-2,-5,1,-1,7
11,4,21,4,0,-6,-15,1,7
2,6,-30,9,0,9,1,0,7
8,-5,-3,-5,1,-16,-17,2,7
-15,-4,26,1,0,1,-4,3,7
-2,0,-27,-2,-2,-7,-3,1,7
-1,-7,18,-3,-5,0,1,5,7
0,3,27,2,0,3,7,2,7
5,4,-43,-2,0,7,0,-5,7
12,-1,28,-1,0,-6,-11,1,7
-7,-1,-19,4,2,-3,6,-4,7
5,3,-8,-4,-5,3,6,0,7
-13,-13,27,-11,-5,-14,-14,3,7
4,-1,-1,2,-2,-5,-5,-2,7
5,2,-8,-5,1,1,-11,-4,7
-9,-4,-3,6,2,-2,7,0,7
6,6,8,0,3,1,6,-1,7
3,7,-8,-13,-7,-2,-2,-3,7
1,-1,14,-3,-1,-3,3,1,7
8,3,14,2,1,5,5,-3,7
-25,-8,-31,5,-1,-3,0,-4,7
3,-4,-16,-6,0,-1,8,3,7
-4,-5,11,-12,-3,11,6,1,7
1,0,11,-7,-5,-15,-19,0,7
13,2,-41,12,2,3,4,0,7
-25,-16,-9,-2,-2,0,1,-1,7
-10,-1,5,2,-1,0,7,-3,7
8,4,5,0,-2,6,16,3,7
8,9,43,1,-1,-13,-27,-1,7
3,-3,-37,3,3,2,-11,-6,7
7,3,14,1,3,15,16,4,7
-8,-4,-23,-10,-1,1,7,1,7
-6,-3,-17,-7,-5,-10,-20,-1,7
7,2,11,3,-1,10,18,1,7
-1,2,-1,1,-3,-8,-5,0,7
3,0,10,1,0,16,3,-5,7
-10,-4,4,2,-1,0,10,0,7
9,1,-5,-2,1,-4,-1,-3,7
-9,-5,-29,-10,-5,-9,-6,-4,7
-2,-5,-7,-1,-1,7,11,-1,7
-4,-9,-18,-16,0,5,-3,-4,7
-15,-3,31,11,4,6,-1,1,7
11,5,4,0,2,-5,10,0,7
0,-1,-1,3,-2,-7,-7,0,7
14,5,7,-9,-3,9,11,1,7
6,-6,-24,-2,-3,-9,-23,1,7
-19,-1,11,3,-1,-3,-1,1,7
-7,-6,-15,-2,0,2,-3,-4,7
-3,-4,7,3,-1,-1,10,5,7
5,7,11,1,0,3,1,0,7
4,2,25,8,-2,-17,-10,3,7
-3,-7,-42,-5,-4,2,-6,0,7
-4,-2,-11,-13,-2,2,6,-5,7
-1,-1,-4,-1,-2,4,10,1,7
-2,-3,9,2,2,-4,-15,-3,7
-1,-1,8,5,0,-9,-20,0,7
24,15,15,10,3,0,-6,0,7
-21,-8,9,4,-2,1,12,-6,7
-11,-7,-27,-7,-5,-1,-7,-4,7
-3,-3,6,-11,-4,-6,1,-1,7
0,3,-36,-3,-1,3,4,2,7
6,-1,-26,-3,1,1,3,1,7
6,-5,17,6,-2,-1,0,-2,7
2,-7,-8,0,3,-4,-8,2,7
-9,4,44,11,0,-2,-6,-4,7
-1,3,-8,-7,0,2,3,-3,7
11,7,16,4,3,17,9,-2,7
4,-1,-38,-6,-3,-8,11,1,7
-15,-7,10,-1,0,-8,-25,3,7
-11,0,-6,-2,-4,-13,0,1,7
9,-4,1,6,4,20,17,-1,7
6,6,23,-14,-2,-4,-12,0,7
20,10,15,4,1,-2,-2,1,7
-32,-16,-65,-4,-4,-11,-22,-2,7
13,3,8,-6,-5,-7,3,-2,7
-3,7,-2,8,-2,3,16,-3,7
-5,-18,-25,-11,1,-3,-17,-1,7
20,6,46,0,1,-1,1,0,7
-10,4,2,17,-2,0,5,1,7
2,6,-16,-2,0,8,3,-1,7
2,4,30,5,-3,-13,-3,0,7
1,-5,-5,-4,2,13,21,-5,7
-3,-22,-44,-14,0,-2,-19,1,7
-4,17,32,9,-1,-3,2,-5,7
0,-5,-27,-2,-3,1,19,2,7
10,7,26,5,1,2,3,-2,7
-6,2,3,-2,-3,-6,6,-2,7
-3,-2,12,5,1,9,1,-1,7
-2,8,38,7,0,-9,-11,1,7
8,-2,-25,-12,-3,11,6,-1,7
-4,-6,-19,-5,-2,2,-1,0,7
-7,-12,-2,-3,0,-2,0,-3,7
-1,1,0,3,3,4,7,-5,7
14,2,16,11,1,-6,-2,3,7
-10,9,8,-6,-3,-5,-1,-2,7
8,-7,-15,-1,-1,16,10,-3,7
-21,-9,-8,-6,-5,-7,-8,-2,7
8,6,18,4,4,0,-6,2,7
9,3,4,-1,2,-1,2,2,7
-5,3,14,10,1,-11,-10,-2,7
-1,-8,-21,-8,-5,3,11,-5,7
12,10,-2,1,-2,-1,-11,-1,7
-2,2,-11,-1,4,1,7,-4,7
-4,-11,-5,-4,-1,5,7,1,7
3,3,27,9,-2,-7,-12,3,7
-11,-4,8,-1,-2,-5,13,-1,7
1,-2,-21,-2,-1,3,-15,-2,7
3,4,8,-1,1,2,-2,-3,7
-2,-5,-17,-9,-3,5,23,3,7
1,-1,7,-2,0,0,-4,0,7
-13,-3,13,2,3,3,0,-1,7
2,1,-18,7,-3,-18,-14,4,7
13,0,-17,-20,-3,10,19,3,7
-1,2,30,27,3,10,5,-5,7
-9,-4,-33,-16,-6,-8,-5,-1,7
-22,-4,7,-3,1,6,2,-3,7
4,-1,8,14,2,-10,-9,-6,7
9,18,29,-19,-4,0,0,3,7
5,-8,-47,-1,2,-2,-1,-1,7
-10,-6,14,4,1,-6,0,-2,7
3,7,23,3,1,2,5,3,7
-4,-12,-36,-6,-3,-2,-11,1,7
-1,0,30,6,0,-6,-3,-1,7
12,5,-28,-9,0,-2,0,4,7
-5,-1,21,3,0,8,7,-2,7
-14,-2,-6,-12,-5,-3,-1,1,7
7,-4,3,0,1,4,1,3,7
-9,-11,-32,0,0,-2,2,-2,7
-6,2,14,2,3,-2,-14,-6,7
-6,-2,14,3,-3,-5,-8,-1,7
3,2,-4,-3,-3,2,8,2,7
10,0,12,-7,-3,-11,-18,-2,7
-2,3,-11,4,1,8,4,-2,7
-3,-3,-11,-6,0,-12,-8,-3,7
3,5,7,-4,-1,7,13,-3,7
-1,-3,10,1,0,3,-1,2,7
4,0,30,2,1,-3,-12,2,7
-12,-2,-48,8,-1,-2,-2,-2,7
7,1,19,0,1,2,11,4,7
-5,-6,-6,-5,0,5,14,-2,7
-3,-5,-5,-7,-2,1,-19,-2,7
5,2,17,4,2,-1,4,-3,7
-9,11,12,3,2,2,0,4,7
18,-3,-2,8,-4,-7,2,-4,7
-17,-12,-34,-11,0,-1,6,-2,7
9,-8,-22,-5,1,6,1,-2,7
-8,3,-22,-1,-5,-15,-16,-3,7
11,1,22,4,3,14,7,-2,7
8,11,18,0,1,-3,-7,-2,7
-13,-11,-4,-11,-1,1,8,2,7
-2,-9,-3,-7,-7,-8,-26,-4,7
7,11,19,6,4,9,10,-2,7
-5,-6,-42,-2,-1,-1,4,0,7
-1,7,21,0,0,-8,1,-1,7
7,-1,27,12,2,9,14,1,7
-6,11,-26,-16,1,11,-4,0,7
15,-4,-26,-3,-8,-17,-6,0,7
9,-17,-10,-4,-4,-7,-15,1,7
-11,-2,14,9,-1,5,9,-3,7
-18,-3,39,2,-4,-17,-15,1,7
-5,-1,-40,-2,-1,8,-4,-2,7
21,2,-5,2,1,-3,1,0,7
2,2,26,7,2,-3,-2,1,7
2,2,-43,-4,-8,-10,-5,2,7
6,5,-10,-8,0,4,14,-2,7
-9,-6,-6,-5,-2,1,-18,2,7
7,-1,0,2,2,-2,-1,-2,7
-9,-8,13,-8,-1,-2,2,0,7
-21,-6,-5,7,-4,-6,-1,2,7
3,6,37,-5,1,13,14,-1,7
1,1,-63,-7,-4,-14,-12,4,7
7,-5,4,-6,-2,-3,-19,0,7
5,-3,22,0,0,8,10,-1,7
-7,4,10,11,2,0,7,0,7
18,17,58,9,1,2,1,-2,7
-13,-12,-75,-13,-3,9,-2,-2,7
-12,-13,-26,-7,-1,-10,-3,1,7
-2,1,-7,3,-2,-9,-19,-6,7
6,-1,20,6,0,1,7,-1,7
-1,7,16,8,1,-13,-17,-4,7
-7,4,24,-4,3,18,16,-3,7
1,-2,-11,-3,-3,-5,-2,1,7
15,7,47,-5,0,-7,-2,-1,7
-8,3,-39,5,-1,7,6,-6,7
0,-9,-1,-3,-4,10,3,-2,7
-12,-5,8,-1,1,-8,1,-1,7
6,3,-10,2,1,5,4,-2,7
0,2,22,2,-1,4,12,4,7
19,8,14,12,3,-12,-7,-1,7
-14,1,-11,-2,-4,5,-2,-4,7
2,-13,-25,-28,-6,-1,-1,-4,7
3,4,72,13,0,-8,7,-3,7
6,9,-47,1,3,-10,-16,0,7
-8,-8,16,4,0,7,14,1,7
8,3,-23,-3,0,3,-19,1,7
-2,-8,10,3,1,20,16,0,7
-11,-4,1,-8,-1,-6,6,-2,7
-14,6,41,8,4,3,2,-1,7
-10,-16,-56,-7,-5,-11,-9,-2,7
16,12,-5,-3,0,-3,6,-7,7
5,12,26,11,0,-1,-8,1,7
-8,-13,-20,-7,-2,4,7,-4,7
-7,-4,19,6,0,-9,-7,-5,7
0,0,-13,1,-3,0,-28,0,7
-11,-3,26,2,-3,-10,-1,-1,7
0,5,-36,-8,-1,5,13,-5,7
-4,-10,19,-2,-2,9,27,-4,7
-5,1,-19,4,1,-25,-12,0,7
12,-2,3,-5,-3,11,-1,-3,7
11,9,60,8,1,7,0,-4,7
8,11,-40,-8,4,3,-4,1,7
-18,-23,-25,-15,-6,-11,-2,3,7
-25,-5,5,9,0,5,13,4,7
2,-5,-8,0,0,-6,-13,-3,7
7,9,30,9,0,6,5,4,7
8,-1,19,-2,1,-3,8,-3,7
13,5,-25,-12,-4,-2,-10,-3,7
-2,-1,12,6,1,-6,-3,4,7
-7,8,19,-1,-1,4,-1,-1,7
-2,-2,-26,-5,-1,-5,17,1,7
-9,-21,-61,-15,-5,5,-25,-1,7
7,7,10,4,-1,-10,-9,3,7
-4,-5,18,4,0,-7,3,-3,7
-12,-5,-23,1,-1,7,10,-1,7
25,6,33,3,-1,-5,15,2,7
6,3,-29,-3,2,-4,-4,0,7
1,-4,16,4,0,5,-4,3,7
5,6,13,-6,-2,0,-3,-2,7
-19,-5,-5,-1,0,4,18,1,7
5,-3,-10,-2,-2,-8,-6,1,7
-27,-8,-10,6,-3,3,-12,-1,7
15,3,2,-4,2,7,1,1,7
16,8,21,-1,-2,-4,5,-2,7
4,3,-13,5,1,12,9,-3,7
-20,-8,-34,-5,-1,-5,6,-2,7
5,2,27,1,1,-2,-7,-2,7
-6,-4,-47,1,-3,4,14,-3,7
8,-1,19,-7,-5,-2,1,1,7
6,6,-33,15,0,-8,-3,-2,7
-23,-7,33,-6,-3,2,-7,-1,7
-2,5,43,7,4,0,3,-1,7
3,-2,-29,-10,-1,-7,0,0,7
-4,-4,3,-1,-1,9,-10,1,7
1,-3,5,8,5,-2,-12,2,7
9,2,-6,-9,-2,-10,-3,-3,7
1,5,-17,0,0,10,11,-6,7
2,-6,13,-10,-3,-14,-18,1,7
-14,13,34,10,1,1,7,-3,7
-7,-24,-93,-10,-1,2,-1,0,7
7,-3,-6,2,1,4,5,2,7
9,4,-2,-7,-2,4,-1,-3,7
22,16,11,1,-1,-6,-5,-3,7
10,9,41,3,-3,-5,-14,-1,7
-41,-22,-21,-9,-4,3,13,-4,7
-5,0,-4,0,2,-2,8,-4,7
7,-3,1,2,-1,-2,-10,2,7
7,8,23,6,0,-10,-5,-2,7
21,9,23,1,-1,2,-8,-3,7
-4,0,-14,0,3,22,26,-3,7
-15,-8,-1,-10,-3,-8,-7,-1,7
0,-3,-46,17,3,11,5,0,7
-4,-1,-13,-4,-2,-13,-2,0,7
11,-9,7,-1,-4,-10,-10,0,7
3,7,0,9,3,16,26,-3,7
9,0,22,2,1,-3,-13,-2,7
-31,-6,18,-5,-2,-3,-11,4,7
-19,-4,-5,-3,-1,-8,-13,2,7
13,-3,-23,7,-1,5,1,0,7
-4,4,55,-2,-1,-3,7,1,7
15,6,-32,-2,-2,-4,6,0,7
-3,-7,5,-7,0,11,4,1,7
-6,-10,-6,2,-3,-7,-5,1,7
-10,7,17,1,2,3,6,-2,7
6,-8,-34,-2,-1,-1,4,-2,7
0,9,4,6,2,-6,7,-1,7
4,-8,-49,-13,-3,5,11,-1,7
-11,-6,-4,-6,-1,6,-13,0,7
-1,4,2,1,-4,-5,-11,2,7
-1,0,49,8,1,-6,7,3,7
11,10,-12,-1,0,7,-12,-2,7
2,-3,-33,-15,-5,-1,1,2,7
-9,-8,29,0,-3,4,-8,-3,7
-18,-4,-20,-2,0,-2,11,-3,7
-3,-4,20,7,2,-2,-1,-1,7
4,6,7,5,1,-9,1,2,7
18,8,22,3,4,13,-5,-2,7
-19,-8,-28,-10,-1,-1,-3,1,7
-1,-8,-28,10,-9,-14,-4,0,7
-3,-7,10,4,2,17,11,-6,7
3,4,30,-2,-1,1,9,4,7
16,8,16,3,-2,-14,-22,-3,7
-1,2,-20,-3,1,4,-5,-4,7
-7,-3,-9,-4,-3,-10,-4,2,7
-3,4,58,17,1,3,-3,-7,7
11,1,-63,-19,-6,-9,0,-1,7
-5,-7,9,0,1,6,5,-2,7
-10,3,15,3,0,8,6,-6,7
2,0,2,3,3,-6,2,-2,7
11,1,9,1,-1,0,-3,1,7
13,4,9,-6,-1,-2,12,2,7
-3,-1,2,-1,4,9,-5,-2,7
-16,-6,-20,-6,-7,-17,-24,3,7
4,1,20,3,-3,3,1,-4,7
2,-7,-28,-9,-1,4,4,2,7
-8,1,13,5,-1,-3,1,3,7
7,5,-8,-2,-1,-3,-8,-2,7
-7,-12,-2,-3,1,1,-6,-4,7
7,7,24,-1,1,0,5,-2,7
-11,10,34,4,-3,-23,-16,0,7
20,-3,-16,-3,-1,13,10,1,7
-13,-10,-49,-8,-3,-3,-9,-1,7
2,-4,7,-2,-1,-10,-12,1,7
-4,2,-2,0,2,7,6,-1,7
3,3,19,-25,3,-2,-1,-1,7
2,-2,5,6,1,11,10,0,7
-12,8,-10,1,-3,-9,3,1,7
9,-8,-23,-12,-5,-10,-16,2,7
-14,-7,-14,5,0,7,5,-1,7
5,1,9,6,1,13,11,-1,7
-2,3,27,-4,3,-4,8,-3,7
17,5,4,5,-4,-1,12,-2,7
-13,-12,-36,-2,0,-10,-21,5,7
-9,2,3,1,-2,-1,-1,0,7
9,4,6,2,-3,7,20,1,7
-20,-11,-12,-2,-3,-7,-10,-8,7
9,-15,-61,-10,-4,-3,0,-2,7
4,6,29,1,1,7,6,0,7
2,-1,4,1,3,-1,-10,-3,7
13,9,10,-3,-1,-3,-2,-3,7
-7,3,45,8,0,7,10,0,7
-1,-5,-24,-6,-4,-13,-4,4,7
0,-2,5,2,-3,-3,-24,1,7
-9,-10,-8,-6,1,2,0,1,7
-7,2,-17,2,0,-1,4,-1,7
10,3,-1,-2,1,15,18,2,7
-7,-3,-3,-3,-3,-5,-1,-1,7
4,-4,20,5,5,-5,-5,1,7
5,15,-5,3,-5,-9,-13,-2,7
7,0,-12,-9,-2,-4,0,-2,7
