21,13,57,27,0,-22,-27,22,7
-28,-39,-48,-12,-7,0,-18,-39,7
-16,-16,-15,18,7,7,-16,-12,7
13,10,-4,-26,-10,-8,-23,8,7
-15,12,-35,-3,3,8,34,-7,7
17,12,53,18,6,8,21,10,7
18,-9,2,13,-2,-8,16,19,7
-16,9,-23,9,4,15,8,-7,7
3,-1,45,14,13,4,-5,-66,7
10,20,-14,0,-7,-1,2,64,7
-14,-16,-72,-40,1,11,5,-23,7
10,-5,90,26,-4,1,9,15,7
2,8,-64,-15,-3,-6,-4,7,7
-1,-10,-39,29,7,2,-9,-16,7
-27,4,-38,-18,0,7,22,9,7
-4,18,-11,-10,6,-11,-6,3,7
-14,-15,-7,1,-16,-8,-42,-10,7
-3,12,19,-12,7,15,49,7,7
-20,-17,-11,4,-5,-26,-67,-18,7
24,-5,-8,-14,3,15,36,18,7
-7,18,72,14,-3,-23,-41,-12,7
7,-17,-55,-5,7,0,-3,4,7
16,23,37,10,-6,0,18,-12,7
-16,-20,-7,-9,0,3,-1,-15,7
-29,-14,-15,-2,10,-4,-21,-38,7
-22,-11,6,9,1,-1,-3,-10,7
30,11,8,-10,-12,5,29,12,7
4,9,29,8,0,5,19,15,7
24,-12,-61,1,-2,-6,-41,16,7
-28,-39,-18,-6,9,-3,-3,-18,7
48,5,37,-12,-8,2,7,3,7
-30,-8,-16,-1,0,-4,-20,-31,7
-2,6,-1,7,-3,-6,12,7,7
26,17,-1,3,26,11,-8,9,7
-14,0,-23,-29,-46,-9,15,24,7
-18,-13,-71,-28,-12,0,-7,-14,7
17,27,93,32,16,10,14,-6,7
7,10,41,-14,-18,0,0,13,7
-32,8,2,-6,14,16,36,1,7
23,-1,-36,7,-3,-35,-51,3,7
-37,-25,-1,2,-3,-3,17,-22,7
21,18,0,-14,-12,4,1,4,7
0,-8,-27,27,21,10,-22,-29,7
32,15,94,-11,-8,-7,2,22,7
17,15,52,66,24,16,27,60,7
-4,-8,13,-50,-27,-20,-31,-44,7
-37,-16,-17,9,-5,-7,-18,-29,7
-6,-4,-23,-9,4,5,12,-3,7
16,6,10,-16,-4,34,34,9,7
15,9,-1,4,8,-43,-26,21,7
-2,-11,-57,-6,-5,-8,-10,10,7
-18,28,89,34,21,11,16,-7,7
-80,-18,-61,-31,-9,-9,-30,-9,7
-5,1,27,58,28,29,42,-6,7
17,1,-6,11,9,-8,-12,13,7
-5,19,-35,-49,-25,-23,-43,-24,7
32,-8,41,27,13,9,38,15,7
-14,0,16,-3,-6,-3,-40,-18,7
-16,26,75,-6,-22,-22,-13,-18,7
29,-41,-60,11,6,25,45,27,7
4,4,19,1,4,-7,-13,-7,7
2,-9,-79,-40,-24,-11,2,8,7
-6,11,34,10,10,-2,-17,2,7
-17,-29,-7,13,5,1,9,-5,7
-14,-2,-6,-12,-13,-22,-36,-37,7
13,12,30,34,6,19,36,33,7
-14,-4,-44,-1,17,22,28,0,7
-15,-12,-8,-27,-4,12,18,3,7
58,-3,0,0,-13,-23,-34,-1,7
-21,-8,-38,1,1,6,1,-10,7
-5,18,8,-3,0,-11,4,-10,7
2,1,-10,-9,6,8,-2,13,7
-7,-16,-15,-5,-9,-6,-2,-27,7
10,20,47,15,6,7,28,19,7
0,-15,-48,2,14,8,-16,-3,7
24,18,-20,-38,-29,-9,26,22,7
5,-7,-48,-3,-2,-5,-5,-4,7
-42,-18,-30,-14,-18,-13,-18,-23,7
-26,0,18,13,3,6,10,-3,7
-30,4,10,12,6,6,-23,-18,7
3,19,41,-3,-1,-8,11,5,7
1,-16,-80,9,14,24,24,6,7
16,2,48,-36,-32,-36,-51,-1,7
16,11,-20,12,9,-2,11,21,7
-22,-8,33,5,-2,-11,-26,-22,7
9,12,5,14,11,7,8,-1,7
14,-10,-16,-25,-10,-7,-10,4,7
-12,-40,-18,34,14,7,0,-15,7
-13,9,11,-19,6,5,15,6,7
14,9,100,12,-11,-3,-12,10,7
8,6,-30,12,11,1,-7,-1,7
4,11,20,14,-2,-8,-18,-14,7
5,-13,-62,-27,-3,12,29,26,7
6,5,-7,-17,2,13,8,-12,7
21,13,57,27,0,-22,-27,22,7
-28,-39,-48,-12,-7,0,-18,-39,7
-16,-16,-15,18,7,7,-16,-12,7
13,10,-4,-26,-10,-8,-23,8,7
-15,12,-35,-3,3,8,34,-7,7
17,12,53,18,6,8,21,10,7
18,-9,2,13,-2,-8,16,19,7
-16,9,-23,9,4,15,8,-7,7
3,-1,45,14,13,4,-5,-66,7
10,20,-14,0,-7,-1,2,64,7
-14,-16,-72,-40,1,11,5,-23,7
10,-5,90,26,-4,1,9,15,7
2,8,-64,-15,-3,-6,-4,7,7
-1,-10,-39,29,7,2,-9,-16,7
-27,4,-38,-18,0,7,22,9,7
-4,18,-11,-10,6,-11,-6,3,7
-14,-15,-7,1,-16,-8,-42,-10,7
-3,12,19,-12,7,15,49,7,7
-20,-17,-11,4,-5,-26,-67,-18,7
24,-5,-8,-14,3,15,36,18,7
-7,18,72,14,-3,-23,-41,-12,7
7,-17,-55,-5,7,0,-3,4,7
16,23,37,10,-6,0,18,-12,7
-16,-20,-7,-9,0,3,-1,-15,7
-29,-14,-15,-2,10,-4,-21,-38,7
-22,-11,6,9,1,-1,-3,-10,7
30,11,8,-10,-12,5,29,12,7
4,9,29,8,0,5,19,15,7
24,-12,-61,1,-2,-6,-41,16,7
-28,-39,-18,-6,9,-3,-3,-18,7
48,5,37,-12,-8,2,7,3,7
-30,-8,-16,-1,0,-4,-20,-31,7
-2,6,-1,7,-3,-6,12,7,7
26,17,-1,3,26,11,-8,9,7
-14,0,-23,-29,-46,-9,15,24,7
-18,-13,-71,-28,-12,0,-7,-14,7
17,27,93,32,16,10,14,-6,7
7,10,41,-14,-18,0,0,13,7
-32,8,2,-6,14,16,36,1,7
23,-1,-36,7,-3,-35,-51,3,7
-37,-25,-1,2,-3,-3,17,-22,7
21,18,0,-14,-12,4,1,4,7
0,-8,-27,27,21,10,-22,-29,7
32,15,94,-11,-8,-7,2,22,7
17,15,52,66,24,16,27,60,7
-4,-8,13,-50,-27,-20,-31,-44,7
-37,-16,-17,9,-5,-7,-18,-29,7
-6,-4,-23,-9,4,5,12,-3,7
16,6,10,-16,-4,34,34,9,7
15,9,-1,4,8,-43,-26,21,7
-2,-11,-57,-6,-5,-8,-10,10,7
-18,28,89,34,21,11,16,-7,7
-80,-18,-61,-31,-9,-9,-30,-9,7
-5,1,27,58,28,29,42,-6,7
17,1,-6,11,9,-8,-12,13,7
-5,19,-35,-49,-25,-23,-43,-24,7
32,-8,41,27,13,9,38,15,7
-14,0,16,-3,-6,-3,-40,-18,7
-16,26,75,-6,-22,-22,-13,-18,7
29,-41,-60,11,6,25,45,27,7
4,4,19,1,4,-7,-13,-7,7
2,-9,-79,-40,-24,-11,2,8,7
-6,11,34,10,10,-2,-17,2,7
-17,-29,-7,13,5,1,9,-5,7
-14,-2,-6,-12,-13,-22,-36,-37,7
13,12,30,34,6,19,36,33,7
-14,-4,-44,-1,17,22,28,0,7
-15,-12,-8,-27,-4,12,18,3,7
58,-3,0,0,-13,-23,-34,-1,7
-21,-8,-38,1,1,6,1,-10,7
-5,18,8,-3,0,-11,4,-10,7
2,1,-10,-9,6,8,-2,13,7
-7,-16,-15,-5,-9,-6,-2,-27,7
10,20,47,15,6,7,28,19,7
0,-15,-48,2,14,8,-16,-3,7
24,18,-20,-38,-29,-9,26,22,7
5,-7,-48,-3,-2,-5,-5,-4,7
-42,-18,-30,-14,-18,-13,-18,-23,7
-26,0,18,13,3,6,10,-3,7
-30,4,10,12,6,6,-23,-18,7
3,19,41,-3,-1,-8,11,5,7
1,-16,-80,9,14,24,24,6,7
16,2,48,-36,-32,-36,-51,-1,7
16,11,-20,12,9,-2,11,21,7
-22,-8,33,5,-2,-11,-26,-22,7
9,12,5,14,11,7,8,-1,7
14,-10,-16,-25,-10,-7,-10,4,7
-12,-40,-18,34,14,7,0,-15,7
-13,9,11,-19,6,5,15,6,7
14,9,100,12,-11,-3,-12,10,7
8,6,-30,12,11,1,-7,-1,7
4,11,20,14,-2,-8,-18,-14,7
5,-13,-62,-27,-3,12,29,26,7
6,5,-7,-17,2,13,8,-12,7
-3,-10,14,15,-6,-21,-35,-4,7
5,-6,11,-19,-1,1,17,-3,7
15,17,37,26,6,16,56,35,7
-34,-6,-25,-2,-2,-23,-66,-52,7
-5,-9,-12,-31,-11,15,30,-3,7
9,17,-23,21,6,-5,-18,4,7
2,-5,-23,-7,-5,10,9,0,7
35,-9,-26,9,4,1,33,27,7
-8,-14,-12,7,19,6,-3,0,7
-11,13,92,68,17,5,4,-6,7
-30,12,-61,-100,-59,-16,-8,-10,7
-6,-20,36,5,-3,8,6,-7,7
9,19,-44,11,7,-25,-28,3,7
8,-3,-24,-25,-3,13,14,17,7
20,2,-7,20,11,-26,-53,-19,7
-16,5,26,5,-2,-3,-9,-6,7
-16,7,-2,-25,-5,22,51,5,7
1,-22,-35,-4,-4,-14,-29,6,7
4,9,22,6,12,2,-29,-11,7
-10,-10,-42,-12,-12,-3,-5,-5,7
-14,-16,-72,-40,1,11,5,-23,7
10,-5,90,26,-4,1,9,15,7
2,8,-64,-15,-3,-6,-4,7,7
-1,-10,-39,29,7,2,-9,-16,7
-27,4,-38,-18,0,7,22,9,7
-4,18,-11,-10,6,-11,-6,3,7
-14,-15,-7,1,-16,-8,-42,-10,7
-3,12,19,-12,7,15,49,7,7
-20,-17,-11,4,-5,-26,-67,-18,7
24,-5,-8,-14,3,15,36,18,7
-7,18,72,14,-3,-23,-41,-12,7
7,-17,-55,-5,7,0,-3,4,7
16,23,37,10,-6,0,18,-12,7
-16,-20,-7,-9,0,3,-1,-15,7
-29,-14,-15,-2,10,-4,-21,-38,7
-22,-11,6,9,1,-1,-3,-10,7
30,11,8,-10,-12,5,29,12,7
4,9,29,8,0,5,19,15,7
24,-12,-61,1,-2,-6,-41,16,7
-28,-39,-18,-6,9,-3,-3,-18,7
48,5,37,-12,-8,2,7,3,7
-30,-8,-16,-1,0,-4,-20,-31,7
-2,6,-1,7,-3,-6,12,7,7
26,17,-1,3,26,11,-8,9,7
-14,0,-23,-29,-46,-9,15,24,7
-18,-13,-71,-28,-12,0,-7,-14,7
17,27,93,32,16,10,14,-6,7
7,10,41,-14,-18,0,0,13,7
-32,8,2,-6,14,16,36,1,7
23,-1,-36,7,-3,-35,-51,3,7
-37,-25,-1,2,-3,-3,17,-22,7
21,18,0,-14,-12,4,1,4,7
0,-8,-27,27,21,10,-22,-29,7
32,15,94,-11,-8,-7,2,22,7
17,15,52,66,24,16,27,60,7
-4,-8,13,-50,-27,-20,-31,-44,7
-37,-16,-17,9,-5,-7,-18,-29,7
-6,-4,-23,-9,4,5,12,-3,7
16,6,10,-16,-4,34,34,9,7
15,9,-1,4,8,-43,-26,21,7
-2,-11,-57,-6,-5,-8,-10,10,7
-18,28,89,34,21,11,16,-7,7
-80,-18,-61,-31,-9,-9,-30,-9,7
-5,1,27,58,28,29,42,-6,7
17,1,-6,11,9,-8,-12,13,7
-5,19,-35,-49,-25,-23,-43,-24,7
32,-8,41,27,13,9,38,15,7
-14,0,16,-3,-6,-3,-40,-18,7
-16,26,75,-6,-22,-22,-13,-18,7
29,-41,-60,11,6,25,45,27,7
4,4,19,1,4,-7,-13,-7,7
2,-9,-79,-40,-24,-11,2,8,7
-6,11,34,10,10,-2,-17,2,7
-17,-29,-7,13,5,1,9,-5,7
-14,-2,-6,-12,-13,-22,-36,-37,7
13,12,30,34,6,19,36,33,7
-14,-4,-44,-1,17,22,28,0,7
-15,-12,-8,-27,-4,12,18,3,7
58,-3,0,0,-13,-23,-34,-1,7
-21,-8,-38,1,1,6,1,-10,7
-5,18,8,-3,0,-11,4,-10,7
2,1,-10,-9,6,8,-2,13,7
-7,-16,-15,-5,-9,-6,-2,-27,7
10,20,47,15,6,7,28,19,7
0,-15,-48,2,14,8,-16,-3,7
24,18,-20,-38,-29,-9,26,22,7
5,-7,-48,-3,-2,-5,-5,-4,7
-42,-18,-30,-14,-18,-13,-18,-23,7
-26,0,18,13,3,6,10,-3,7
-30,4,10,12,6,6,-23,-18,7
3,19,41,-3,-1,-8,11,5,7
1,-16,-80,9,14,24,24,6,7
16,2,48,-36,-32,-36,-51,-1,7
16,11,-20,12,9,-2,11,21,7
-22,-8,33,5,-2,-11,-26,-22,7
9,12,5,14,11,7,8,-1,7
14,-10,-16,-25,-10,-7,-10,4,7
-12,-40,-18,34,14,7,0,-15,7
-13,9,11,-19,6,5,15,6,7
14,9,100,12,-11,-3,-12,10,7
8,6,-30,12,11,1,-7,-1,7
4,11,20,14,-2,-8,-18,-14,7
5,-13,-62,-27,-3,12,29,26,7
6,5,-7,-17,2,13,8,-12,7
-3,-10,14,15,-6,-21,-35,-4,7
5,-6,11,-19,-1,1,17,-3,7
15,17,37,26,6,16,56,35,7
-34,-6,-25,-2,-2,-23,-66,-52,7
-5,-9,-12,-31,-11,15,30,-3,7
9,17,-23,21,6,-5,-18,4,7
2,-5,-23,-7,-5,10,9,0,7
35,-9,-26,9,4,1,33,27,7
-8,-14,-12,7,19,6,-3,0,7
-11,13,92,68,17,5,4,-6,7
-30,12,-61,-100,-59,-16,-8,-10,7
-6,-20,36,5,-3,8,6,-7,7
9,19,-44,11,7,-25,-28,3,7
8,-3,-24,-25,-3,13,14,17,7
20,2,-7,20,11,-26,-53,-19,7
-16,5,26,5,-2,-3,-9,-6,7
-16,7,-2,-25,-5,22,51,5,7
1,-22,-35,-4,-4,-14,-29,6,7
4,9,22,6,12,2,-29,-11,7
-10,-10,-42,-12,-12,-3,-5,-5,7
12,0,39,13,16,15,26,8,7
23,7,-18,-11,-4,9,19,5,7
-21,-2,-7,17,13,0,13,1,7
9,-7,3,-9,-18,-12,4,4,7
8,-3,-5,5,22,14,-23,-9,7
-10,-6,3,-17,-38,-16,15,-8,7
19,4,-10,12,14,15,-10,-4,7
6,-5,4,-13,2,-6,6,13,7
0,-14,-66,-17,-10,-2,10,-3,7
-18,11,72,19,5,-10,-10,-13,7
19,11,-27,4,11,22,42,21,7
-13,-3,-19,0,-8,-14,-44,-16,7
18,0,51,1,-7,-20,-15,13,7
-33,-4,-47,-5,6,-3,-10,-20,7
4,-16,40,33,-1,-6,-9,-2,7
2,15,-28,-36,0,17,15,7,7
-17,-19,-35,-23,-12,-15,-16,0,7
12,-7,18,-9,3,4,-19,-12,7
-3,0,86,77,23,-7,-5,4,7
11,9,-31,-40,-24,1,21,8,7
7,8,25,13,-5,8,28,13,7
-3,-5,7,-2,10,6,-19,0,7
7,8,-64,-5,-16,0,7,5,7
-15,-16,-32,-2,6,-11,-9,-13,7
48,5,37,-12,-8,2,7,3,7
-30,-8,-16,-1,0,-4,-20,-31,7
-2,6,-1,7,-3,-6,12,7,7
26,17,-1,3,26,11,-8,9,7
-14,0,-23,-29,-46,-9,15,24,7
-18,-13,-71,-28,-12,0,-7,-14,7
17,27,93,32,16,10,14,-6,7
7,10,41,-14,-18,0,0,13,7
-32,8,2,-6,14,16,36,1,7
23,-1,-36,7,-3,-35,-51,3,7
-37,-25,-1,2,-3,-3,17,-22,7
21,18,0,-14,-12,4,1,4,7
0,-8,-27,27,21,10,-22,-29,7
32,15,94,-11,-8,-7,2,22,7
17,15,52,66,24,16,27,60,7
-4,-8,13,-50,-27,-20,-31,-44,7
-37,-16,-17,9,-5,-7,-18,-29,7
-6,-4,-23,-9,4,5,12,-3,7
16,6,10,-16,-4,34,34,9,7
15,9,-1,4,8,-43,-26,21,7
-2,-11,-57,-6,-5,-8,-10,10,7
-18,28,89,34,21,11,16,-7,7
-80,-18,-61,-31,-9,-9,-30,-9,7
-5,1,27,58,28,29,42,-6,7
17,1,-6,11,9,-8,-12,13,7
-5,19,-35,-49,-25,-23,-43,-24,7
32,-8,41,27,13,9,38,15,7
-14,0,16,-3,-6,-3,-40,-18,7
-16,26,75,-6,-22,-22,-13,-18,7
29,-41,-60,11,6,25,45,27,7
4,4,19,1,4,-7,-13,-7,7
2,-9,-79,-40,-24,-11,2,8,7
-6,11,34,10,10,-2,-17,2,7
-17,-29,-7,13,5,1,9,-5,7
-14,-2,-6,-12,-13,-22,-36,-37,7
13,12,30,34,6,19,36,33,7
-14,-4,-44,-1,17,22,28,0,7
-15,-12,-8,-27,-4,12,18,3,7
58,-3,0,0,-13,-23,-34,-1,7
-21,-8,-38,1,1,6,1,-10,7
-5,18,8,-3,0,-11,4,-10,7
2,1,-10,-9,6,8,-2,13,7
-7,-16,-15,-5,-9,-6,-2,-27,7
10,20,47,15,6,7,28,19,7
0,-15,-48,2,14,8,-16,-3,7
24,18,-20,-38,-29,-9,26,22,7
5,-7,-48,-3,-2,-5,-5,-4,7
-42,-18,-30,-14,-18,-13,-18,-23,7
-26,0,18,13,3,6,10,-3,7
-30,4,10,12,6,6,-23,-18,7
3,19,41,-3,-1,-8,11,5,7
1,-16,-80,9,14,24,24,6,7
16,2,48,-36,-32,-36,-51,-1,7
16,11,-20,12,9,-2,11,21,7
-22,-8,33,5,-2,-11,-26,-22,7
9,12,5,14,11,7,8,-1,7
14,-10,-16,-25,-10,-7,-10,4,7
-12,-40,-18,34,14,7,0,-15,7
-13,9,11,-19,6,5,15,6,7
14,9,100,12,-11,-3,-12,10,7
8,6,-30,12,11,1,-7,-1,7
4,11,20,14,-2,-8,-18,-14,7
5,-13,-62,-27,-3,12,29,26,7
6,5,-7,-17,2,13,8,-12,7
-3,-10,14,15,-6,-21,-35,-4,7
5,-6,11,-19,-1,1,17,-3,7
15,17,37,26,6,16,56,35,7
-34,-6,-25,-2,-2,-23,-66,-52,7
-5,-9,-12,-31,-11,15,30,-3,7
9,17,-23,21,6,-5,-18,4,7
2,-5,-23,-7,-5,10,9,0,7
35,-9,-26,9,4,1,33,27,7
-8,-14,-12,7,19,6,-3,0,7
-11,13,92,68,17,5,4,-6,7
-30,12,-61,-100,-59,-16,-8,-10,7
-6,-20,36,5,-3,8,6,-7,7
9,19,-44,11,7,-25,-28,3,7
8,-3,-24,-25,-3,13,14,17,7
20,2,-7,20,11,-26,-53,-19,7
-16,5,26,5,-2,-3,-9,-6,7
-16,7,-2,-25,-5,22,51,5,7
1,-22,-35,-4,-4,-14,-29,6,7
4,9,22,6,12,2,-29,-11,7
-10,-10,-42,-12,-12,-3,-5,-5,7
12,0,39,13,16,15,26,8,7
23,7,-18,-11,-4,9,19,5,7
-21,-2,-7,17,13,0,13,1,7
9,-7,3,-9,-18,-12,4,4,7
8,-3,-5,5,22,14,-23,-9,7
-10,-6,3,-17,-38,-16,15,-8,7
19,4,-10,12,14,15,-10,-4,7
6,-5,4,-13,2,-6,6,13,7
0,-14,-66,-17,-10,-2,10,-3,7
-18,11,72,19,5,-10,-10,-13,7
19,11,-27,4,11,22,42,21,7
-13,-3,-19,0,-8,-14,-44,-16,7
18,0,51,1,-7,-20,-15,13,7
-33,-4,-47,-5,6,-3,-10,-20,7
4,-16,40,33,-1,-6,-9,-2,7
2,15,-28,-36,0,17,15,7,7
-17,-19,-35,-23,-12,-15,-16,0,7
12,-7,18,-9,3,4,-19,-12,7
-3,0,86,77,23,-7,-5,4,7
11,9,-31,-40,-24,1,21,8,7
7,8,25,13,-5,8,28,13,7
-3,-5,7,-2,10,6,-19,0,7
7,8,-64,-5,-16,0,7,5,7
-15,-16,-32,-2,6,-11,-9,-13,7
10,15,84,32,11,9,44,8,7
-4,4,-3,-3,-2,3,-21,8,7
-13,7,-82,-39,-7,-27,-41,-28,7
6,2,10,13,6,7,22,17,7
-14,-33,-59,2,-6,0,3,4,7
-9,5,7,5,7,9,-7,-27,7
20,14,17,0,0,13,32,30,7
-1,21,18,-23,-2,-10,-4,6,7
-40,-24,20,67,16,13,-11,-36,7
23,7,-38,-56,-28,-26,-6,21,7
-15,-12,24,27,23,10,-13,-13,7
0,-5,8,-52,-48,-15,13,-12,7
7,5,-61,-7,10,2,-12,-3,7
-7,6,-4,15,10,13,49,5,7
-6,1,12,4,-3,-15,-40,2,7
16,-9,6,28,25,17,17,9,7
4,26,44,25,5,9,30,16,7
-8,-1,-48,-4,-9,-39,-58,-19,7
-7,-26,9,-42,-7,10,9,-8,7
-1,17,-27,-11,-7,5,-1,-3,7
-2,-11,-57,-6,-5,-8,-10,10,7
-18,28,89,34,21,11,16,-7,7
-80,-18,-61,-31,-9,-9,-30,-9,7
-5,1,27,58,28,29,42,-6,7
17,1,-6,11,9,-8,-12,13,7
-5,19,-35,-49,-25,-23,-43,-24,7
32,-8,41,27,13,9,38,15,7
-14,0,16,-3,-6,-3,-40,-18,7
-16,26,75,-6,-22,-22,-13,-18,7
29,-41,-60,11,6,25,45,27,7
4,4,19,1,4,-7,-13,-7,7
2,-9,-79,-40,-24,-11,2,8,7
-6,11,34,10,10,-2,-17,2,7
-17,-29,-7,13,5,1,9,-5,7
-14,-2,-6,-12,-13,-22,-36,-37,7
13,12,30,34,6,19,36,33,7
-14,-4,-44,-1,17,22,28,0,7
-15,-12,-8,-27,-4,12,18,3,7
58,-3,0,0,-13,-23,-34,-1,7
-21,-8,-38,1,1,6,1,-10,7
-5,18,8,-3,0,-11,4,-10,7
2,1,-10,-9,6,8,-2,13,7
-7,-16,-15,-5,-9,-6,-2,-27,7
10,20,47,15,6,7,28,19,7
0,-15,-48,2,14,8,-16,-3,7
24,18,-20,-38,-29,-9,26,22,7
5,-7,-48,-3,-2,-5,-5,-4,7
-42,-18,-30,-14,-18,-13,-18,-23,7
-26,0,18,13,3,6,10,-3,7
-30,4,10,12,6,6,-23,-18,7
3,19,41,-3,-1,-8,11,5,7
1,-16,-80,9,14,24,24,6,7
16,2,48,-36,-32,-36,-51,-1,7
16,11,-20,12,9,-2,11,21,7
-22,-8,33,5,-2,-11,-26,-22,7
9,12,5,14,11,7,8,-1,7
14,-10,-16,-25,-10,-7,-10,4,7
-12,-40,-18,34,14,7,0,-15,7
-13,9,11,-19,6,5,15,6,7
14,9,100,12,-11,-3,-12,10,7
8,6,-30,12,11,1,-7,-1,7
4,11,20,14,-2,-8,-18,-14,7
5,-13,-62,-27,-3,12,29,26,7
6,5,-7,-17,2,13,8,-12,7
-3,-10,14,15,-6,-21,-35,-4,7
5,-6,11,-19,-1,1,17,-3,7
15,17,37,26,6,16,56,35,7
-34,-6,-25,-2,-2,-23,-66,-52,7
-5,-9,-12,-31,-11,15,30,-3,7
9,17,-23,21,6,-5,-18,4,7
2,-5,-23,-7,-5,10,9,0,7
35,-9,-26,9,4,1,33,27,7
-8,-14,-12,7,19,6,-3,0,7
-11,13,92,68,17,5,4,-6,7
-30,12,-61,-100,-59,-16,-8,-10,7
-6,-20,36,5,-3,8,6,-7,7
9,19,-44,11,7,-25,-28,3,7
8,-3,-24,-25,-3,13,14,17,7
20,2,-7,20,11,-26,-53,-19,7
-16,5,26,5,-2,-3,-9,-6,7
-16,7,-2,-25,-5,22,51,5,7
1,-22,-35,-4,-4,-14,-29,6,7
4,9,22,6,12,2,-29,-11,7
-10,-10,-42,-12,-12,-3,-5,-5,7
12,0,39,13,16,15,26,8,7
23,7,-18,-11,-4,9,19,5,7
-21,-2,-7,17,13,0,13,1,7
9,-7,3,-9,-18,-12,4,4,7
8,-3,-5,5,22,14,-23,-9,7
-10,-6,3,-17,-38,-16,15,-8,7
19,4,-10,12,14,15,-10,-4,7
6,-5,4,-13,2,-6,6,13,7
0,-14,-66,-17,-10,-2,10,-3,7
-18,11,72,19,5,-10,-10,-13,7
19,11,-27,4,11,22,42,21,7
-13,-3,-19,0,-8,-14,-44,-16,7
18,0,51,1,-7,-20,-15,13,7
-33,-4,-47,-5,6,-3,-10,-20,7
4,-16,40,33,-1,-6,-9,-2,7
2,15,-28,-36,0,17,15,7,7
-17,-19,-35,-23,-12,-15,-16,0,7
12,-7,18,-9,3,4,-19,-12,7
-3,0,86,77,23,-7,-5,4,7
11,9,-31,-40,-24,1,21,8,7
7,8,25,13,-5,8,28,13,7
-3,-5,7,-2,10,6,-19,0,7
7,8,-64,-5,-16,0,7,5,7
-15,-16,-32,-2,6,-11,-9,-13,7
10,15,84,32,11,9,44,8,7
-4,4,-3,-3,-2,3,-21,8,7
-13,7,-82,-39,-7,-27,-41,-28,7
6,2,10,13,6,7,22,17,7
-14,-33,-59,2,-6,0,3,4,7
-9,5,7,5,7,9,-7,-27,7
20,14,17,0,0,13,32,30,7
-1,21,18,-23,-2,-10,-4,6,7
-40,-24,20,67,16,13,-11,-36,7
23,7,-38,-56,-28,-26,-6,21,7
-15,-12,24,27,23,10,-13,-13,7
0,-5,8,-52,-48,-15,13,-12,7
7,5,-61,-7,10,2,-12,-3,7
-7,6,-4,15,10,13,49,5,7
-6,1,12,4,-3,-15,-40,2,7
16,-9,6,28,25,17,17,9,7
4,26,44,25,5,9,30,16,7
-8,-1,-48,-4,-9,-39,-58,-19,7
-7,-26,9,-42,-7,10,9,-8,7
-1,17,-27,-11,-7,5,-1,-3,7
11,14,89,22,4,0,-5,3,7
2,-6,-7,12,8,11,68,22,7
-9,1,-23,20,0,3,-5,-5,7
0,-12,-9,-10,8,-9,-27,1,7
-11,3,-8,-46,-33,-9,-39,-49,7
19,-3,57,12,8,6,35,45,7
23,-12,-35,-7,-12,8,21,-1,7
-24,-15,34,36,17,-4,3,-18,7
-11,3,-18,-39,-31,-36,-96,-12,7
-5,-2,-37,-5,2,3,-5,-13,7
12,9,23,-13,-2,21,61,35,7
-5,-5,-18,16,12,-6,-16,-5,7
12,-8,-9,-18,-3,-5,5,6,7
12,8,10,12,-2,-8,-29,8,7
-24,-7,-13,14,4,-7,-34,-3,7
-1,10,26,25,12,2,39,-14,7
-5,-13,-3,-31,-28,-6,22,13,7
-21,-14,-24,-3,2,15,-23,-28,7
18,-4,-13,-13,7,-7,-16,-5,7
-17,-15,-53,3,3,4,-8,12,7
-5,18,8,-3,0,-11,4,-10,7
2,1,-10,-9,6,8,-2,13,7
-7,-16,-15,-5,-9,-6,-2,-27,7
10,20,47,15,6,7,28,19,7
0,-15,-48,2,14,8,-16,-3,7
24,18,-20,-38,-29,-9,26,22,7
5,-7,-48,-3,-2,-5,-5,-4,7
-42,-18,-30,-14,-18,-13,-18,-23,7
-26,0,18,13,3,6,10,-3,7
-30,4,10,12,6,6,-23,-18,7
3,19,41,-3,-1,-8,11,5,7
1,-16,-80,9,14,24,24,6,7
16,2,48,-36,-32,-36,-51,-1,7
16,11,-20,12,9,-2,11,21,7
-22,-8,33,5,-2,-11,-26,-22,7
9,12,5,14,11,7,8,-1,7
14,-10,-16,-25,-10,-7,-10,4,7
-12,-40,-18,34,14,7,0,-15,7
-13,9,11,-19,6,5,15,6,7
14,9,100,12,-11,-3,-12,10,7
8,6,-30,12,11,1,-7,-1,7
4,11,20,14,-2,-8,-18,-14,7
5,-13,-62,-27,-3,12,29,26,7
6,5,-7,-17,2,13,8,-12,7
-3,-10,14,15,-6,-21,-35,-4,7
5,-6,11,-19,-1,1,17,-3,7
15,17,37,26,6,16,56,35,7
-34,-6,-25,-2,-2,-23,-66,-52,7
-5,-9,-12,-31,-11,15,30,-3,7
9,17,-23,21,6,-5,-18,4,7
2,-5,-23,-7,-5,10,9,0,7
35,-9,-26,9,4,1,33,27,7
-8,-14,-12,7,19,6,-3,0,7
-11,13,92,68,17,5,4,-6,7
-30,12,-61,-100,-59,-16,-8,-10,7
-6,-20,36,5,-3,8,6,-7,7
9,19,-44,11,7,-25,-28,3,7
8,-3,-24,-25,-3,13,14,17,7
20,2,-7,20,11,-26,-53,-19,7
-16,5,26,5,-2,-3,-9,-6,7
-16,7,-2,-25,-5,22,51,5,7
1,-22,-35,-4,-4,-14,-29,6,7
4,9,22,6,12,2,-29,-11,7
-10,-10,-42,-12,-12,-3,-5,-5,7
12,0,39,13,16,15,26,8,7
23,7,-18,-11,-4,9,19,5,7
-21,-2,-7,17,13,0,13,1,7
9,-7,3,-9,-18,-12,4,4,7
8,-3,-5,5,22,14,-23,-9,7
-10,-6,3,-17,-38,-16,15,-8,7
19,4,-10,12,14,15,-10,-4,7
6,-5,4,-13,2,-6,6,13,7
0,-14,-66,-17,-10,-2,10,-3,7
-18,11,72,19,5,-10,-10,-13,7
19,11,-27,4,11,22,42,21,7
-13,-3,-19,0,-8,-14,-44,-16,7
18,0,51,1,-7,-20,-15,13,7
-33,-4,-47,-5,6,-3,-10,-20,7
4,-16,40,33,-1,-6,-9,-2,7
2,15,-28,-36,0,17,15,7,7
-17,-19,-35,-23,-12,-15,-16,0,7
12,-7,18,-9,3,4,-19,-12,7
-3,0,86,77,23,-7,-5,4,7
11,9,-31,-40,-24,1,21,8,7
7,8,25,13,-5,8,28,13,7
-3,-5,7,-2,10,6,-19,0,7
7,8,-64,-5,-16,0,7,5,7
-15,-16,-32,-2,6,-11,-9,-13,7
10,15,84,32,11,9,44,8,7
-4,4,-3,-3,-2,3,-21,8,7
-13,7,-82,-39,-7,-27,-41,-28,7
6,2,10,13,6,7,22,17,7
-14,-33,-59,2,-6,0,3,4,7
-9,5,7,5,7,9,-7,-27,7
20,14,17,0,0,13,32,30,7
-1,21,18,-23,-2,-10,-4,6,7
-40,-24,20,67,16,13,-11,-36,7
23,7,-38,-56,-28,-26,-6,21,7
-15,-12,24,27,23,10,-13,-13,7
0,-5,8,-52,-48,-15,13,-12,7
7,5,-61,-7,10,2,-12,-3,7
-7,6,-4,15,10,13,49,5,7
-6,1,12,4,-3,-15,-40,2,7
16,-9,6,28,25,17,17,9,7
4,26,44,25,5,9,30,16,7
-8,-1,-48,-4,-9,-39,-58,-19,7
-7,-26,9,-42,-7,10,9,-8,7
-1,17,-27,-11,-7,5,-1,-3,7
11,14,89,22,4,0,-5,3,7
2,-6,-7,12,8,11,68,22,7
-9,1,-23,20,0,3,-5,-5,7
0,-12,-9,-10,8,-9,-27,1,7
-11,3,-8,-46,-33,-9,-39,-49,7
19,-3,57,12,8,6,35,45,7
23,-12,-35,-7,-12,8,21,-1,7
-24,-15,34,36,17,-4,3,-18,7
-11,3,-18,-39,-31,-36,-96,-12,7
-5,-2,-37,-5,2,3,-5,-13,7
12,9,23,-13,-2,21,61,35,7
-5,-5,-18,16,12,-6,-16,-5,7
12,-8,-9,-18,-3,-5,5,6,7
12,8,10,12,-2,-8,-29,8,7
-24,-7,-13,14,4,-7,-34,-3,7
-1,10,26,25,12,2,39,-14,7
-5,-13,-3,-31,-28,-6,22,13,7
-21,-14,-24,-3,2,15,-23,-28,7
18,-4,-13,-13,7,-7,-16,-5,7
-17,-15,-53,3,3,4,-8,12,7
18,42,74,40,16,6,55,16,7
-13,-42,-40,-16,-1,-2,-16,-23,7
2,19,-55,-57,-23,-7,-35,19,7
-3,13,20,38,2,-28,-25,4,7
-24,-41,-128,-74,-3,28,20,-25,7
16,41,127,74,13,-15,-20,10,7
-9,9,14,6,5,-2,-10,-20,7
26,-20,-51,-27,-4,8,30,25,7
5,1,-31,21,8,4,-39,7,7
-7,0,-6,-23,-8,8,40,-1,7
-18,-7,16,4,-4,-19,-64,-15,7
-5,11,-40,1,8,22,29,-17,7
16,11,71,25,-5,-18,-26,-8,7
0,-30,-45,-26,-7,1,-4,-5,7
-3,9,63,-7,-23,-2,27,-1,7
12,8,1,20,5,18,-16,16,7
-8,0,6,33,35,-9,-5,-2,7
0,-2,-79,-61,-33,-8,-4,1,7
25,7,22,-12,0,20,67,30,7
-3,9,60,19,-4,-22,-89,-5,7
5,-13,-62,-27,-3,12,29,26,7
6,5,-7,-17,2,13,8,-12,7
-3,-10,14,15,-6,-21,-35,-4,7
5,-6,11,-19,-1,1,17,-3,7
15,17,37,26,6,16,56,35,7
-34,-6,-25,-2,-2,-23,-66,-52,7
-5,-9,-12,-31,-11,15,30,-3,7
9,17,-23,21,6,-5,-18,4,7
2,-5,-23,-7,-5,10,9,0,7
35,-9,-26,9,4,1,33,27,7
-8,-14,-12,7,19,6,-3,0,7
-11,13,92,68,17,5,4,-6,7
-30,12,-61,-100,-59,-16,-8,-10,7
-6,-20,36,5,-3,8,6,-7,7
9,19,-44,11,7,-25,-28,3,7
8,-3,-24,-25,-3,13,14,17,7
20,2,-7,20,11,-26,-53,-19,7
-16,5,26,5,-2,-3,-9,-6,7
-16,7,-2,-25,-5,22,51,5,7
1,-22,-35,-4,-4,-14,-29,6,7
4,9,22,6,12,2,-29,-11,7
-10,-10,-42,-12,-12,-3,-5,-5,7
12,0,39,13,16,15,26,8,7
23,7,-18,-11,-4,9,19,5,7
-21,-2,-7,17,13,0,13,1,7
9,-7,3,-9,-18,-12,4,4,7
8,-3,-5,5,22,14,-23,-9,7
-10,-6,3,-17,-38,-16,15,-8,7
19,4,-10,12,14,15,-10,-4,7
6,-5,4,-13,2,-6,6,13,7
0,-14,-66,-17,-10,-2,10,-3,7
-18,11,72,19,5,-10,-10,-13,7
19,11,-27,4,11,22,42,21,7
-13,-3,-19,0,-8,-14,-44,-16,7
18,0,51,1,-7,-20,-15,13,7
-33,-4,-47,-5,6,-3,-10,-20,7
4,-16,40,33,-1,-6,-9,-2,7
2,15,-28,-36,0,17,15,7,7
-17,-19,-35,-23,-12,-15,-16,0,7
12,-7,18,-9,3,4,-19,-12,7
-3,0,86,77,23,-7,-5,4,7
11,9,-31,-40,-24,1,21,8,7
7,8,25,13,-5,8,28,13,7
-3,-5,7,-2,10,6,-19,0,7
7,8,-64,-5,-16,0,7,5,7
-15,-16,-32,-2,6,-11,-9,-13,7
10,15,84,32,11,9,44,8,7
-4,4,-3,-3,-2,3,-21,8,7
-13,7,-82,-39,-7,-27,-41,-28,7
6,2,10,13,6,7,22,17,7
-14,-33,-59,2,-6,0,3,4,7
-9,5,7,5,7,9,-7,-27,7
20,14,17,0,0,13,32,30,7
-1,21,18,-23,-2,-10,-4,6,7
-40,-24,20,67,16,13,-11,-36,7
23,7,-38,-56,-28,-26,-6,21,7
-15,-12,24,27,23,10,-13,-13,7
0,-5,8,-52,-48,-15,13,-12,7
7,5,-61,-7,10,2,-12,-3,7
-7,6,-4,15,10,13,49,5,7
-6,1,12,4,-3,-15,-40,2,7
16,-9,6,28,25,17,17,9,7
4,26,44,25,5,9,30,16,7
-8,-1,-48,-4,-9,-39,-58,-19,7
-7,-26,9,-42,-7,10,9,-8,7
-1,17,-27,-11,-7,5,-1,-3,7
11,14,89,22,4,0,-5,3,7
2,-6,-7,12,8,11,68,22,7
-9,1,-23,20,0,3,-5,-5,7
0,-12,-9,-10,8,-9,-27,1,7
-11,3,-8,-46,-33,-9,-39,-49,7
19,-3,57,12,8,6,35,45,7
23,-12,-35,-7,-12,8,21,-1,7
-24,-15,34,36,17,-4,3,-18,7
-11,3,-18,-39,-31,-36,-96,-12,7
-5,-2,-37,-5,2,3,-5,-13,7
12,9,23,-13,-2,21,61,35,7
-5,-5,-18,16,12,-6,-16,-5,7
12,-8,-9,-18,-3,-5,5,6,7
12,8,10,12,-2,-8,-29,8,7
-24,-7,-13,14,4,-7,-34,-3,7
-1,10,26,25,12,2,39,-14,7
-5,-13,-3,-31,-28,-6,22,13,7
-21,-14,-24,-3,2,15,-23,-28,7
18,-4,-13,-13,7,-7,-16,-5,7
-17,-15,-53,3,3,4,-8,12,7
18,42,74,40,16,6,55,16,7
-13,-42,-40,-16,-1,-2,-16,-23,7
2,19,-55,-57,-23,-7,-35,19,7
-3,13,20,38,2,-28,-25,4,7
-24,-41,-128,-74,-3,28,20,-25,7
16,41,127,74,13,-15,-20,10,7
-9,9,14,6,5,-2,-10,-20,7
26,-20,-51,-27,-4,8,30,25,7
5,1,-31,21,8,4,-39,7,7
-7,0,-6,-23,-8,8,40,-1,7
-18,-7,16,4,-4,-19,-64,-15,7
-5,11,-40,1,8,22,29,-17,7
16,11,71,25,-5,-18,-26,-8,7
0,-30,-45,-26,-7,1,-4,-5,7
-3,9,63,-7,-23,-2,27,-1,7
12,8,1,20,5,18,-16,16,7
-8,0,6,33,35,-9,-5,-2,7
0,-2,-79,-61,-33,-8,-4,1,7
25,7,22,-12,0,20,67,30,7
-3,9,60,19,-4,-22,-89,-5,7
-5,-36,-96,-27,6,13,21,-14,7
-8,26,76,66,17,9,18,6,7
-4,-21,-32,-6,3,8,29,-18,7
3,8,-32,-12,-10,-6,-25,13,7
-6,-9,-15,-18,-10,-22,24,9,7
4,7,-21,45,21,7,-42,-14,7
-2,-15,-61,-61,-33,-8,29,-5,7
1,18,34,6,-2,-5,11,-4,7
-11,-16,12,20,7,10,0,5,7
7,-15,29,-6,2,4,3,-5,7
5,23,14,9,21,3,13,1,7
-1,-6,-22,-20,-15,0,31,10,7
-18,20,-9,25,2,-12,-37,-29,7
3,4,-11,-18,-4,-6,13,4,7
-4,-12,-16,24,13,6,-15,-4,7
16,-13,24,-22,-4,5,15,0,7
12,18,-36,-7,2,20,21,23,7
-3,1,-33,5,16,11,-7,-4,7
-2,36,27,-19,-19,-26,-17,4,7
-20,-43,-81,-10,0,-11,-22,-28,7
-2,14,55,15,-3,14,6,1,7
19,-19,-28,18,15,13,22,2,7
-16,7,-2,-25,-5,22,51,5,7
1,-22,-35,-4,-4,-14,-29,6,7
4,9,22,6,12,2,-29,-11,7
-10,-10,-42,-12,-12,-3,-5,-5,7
12,0,39,13,16,15,26,8,7
23,7,-18,-11,-4,9,19,5,7
-21,-2,-7,17,13,0,13,1,7
9,-7,3,-9,-18,-12,4,4,7
8,-3,-5,5,22,14,-23,-9,7
-10,-6,3,-17,-38,-16,15,-8,7
19,4,-10,12,14,15,-10,-4,7
6,-5,4,-13,2,-6,6,13,7
0,-14,-66,-17,-10,-2,10,-3,7
-18,11,72,19,5,-10,-10,-13,7
19,11,-27,4,11,22,42,21,7
-13,-3,-19,0,-8,-14,-44,-16,7
18,0,51,1,-7,-20,-15,13,7
-33,-4,-47,-5,6,-3,-10,-20,7
4,-16,40,33,-1,-6,-9,-2,7
2,15,-28,-36,0,17,15,7,7
-17,-19,-35,-23,-12,-15,-16,0,7
12,-7,18,-9,3,4,-19,-12,7
-3,0,86,77,23,-7,-5,4,7
11,9,-31,-40,-24,1,21,8,7
7,8,25,13,-5,8,28,13,7
-3,-5,7,-2,10,6,-19,0,7
7,8,-64,-5,-16,0,7,5,7
-15,-16,-32,-2,6,-11,-9,-13,7
10,15,84,32,11,9,44,8,7
-4,4,-3,-3,-2,3,-21,8,7
-13,7,-82,-39,-7,-27,-41,-28,7
6,2,10,13,6,7,22,17,7
-14,-33,-59,2,-6,0,3,4,7
-9,5,7,5,7,9,-7,-27,7
20,14,17,0,0,13,32,30,7
-1,21,18,-23,-2,-10,-4,6,7
-40,-24,20,67,16,13,-11,-36,7
23,7,-38,-56,-28,-26,-6,21,7
-15,-12,24,27,23,10,-13,-13,7
0,-5,8,-52,-48,-15,13,-12,7
7,5,-61,-7,10,2,-12,-3,7
-7,6,-4,15,10,13,49,5,7
-6,1,12,4,-3,-15,-40,2,7
16,-9,6,28,25,17,17,9,7
4,26,44,25,5,9,30,16,7
-8,-1,-48,-4,-9,-39,-58,-19,7
-7,-26,9,-42,-7,10,9,-8,7
-1,17,-27,-11,-7,5,-1,-3,7
11,14,89,22,4,0,-5,3,7
2,-6,-7,12,8,11,68,22,7
-9,1,-23,20,0,3,-5,-5,7
0,-12,-9,-10,8,-9,-27,1,7
-11,3,-8,-46,-33,-9,-39,-49,7
19,-3,57,12,8,6,35,45,7
23,-12,-35,-7,-12,8,21,-1,7
-24,-15,34,36,17,-4,3,-18,7
-11,3,-18,-39,-31,-36,-96,-12,7
-5,-2,-37,-5,2,3,-5,-13,7
12,9,23,-13,-2,21,61,35,7
-5,-5,-18,16,12,-6,-16,-5,7
12,-8,-9,-18,-3,-5,5,6,7
12,8,10,12,-2,-8,-29,8,7
-24,-7,-13,14,4,-7,-34,-3,7
-1,10,26,25,12,2,39,-14,7
-5,-13,-3,-31,-28,-6,22,13,7
-21,-14,-24,-3,2,15,-23,-28,7
18,-4,-13,-13,7,-7,-16,-5,7
-17,-15,-53,3,3,4,-8,12,7
18,42,74,40,16,6,55,16,7
-13,-42,-40,-16,-1,-2,-16,-23,7
2,19,-55,-57,-23,-7,-35,19,7
-3,13,20,38,2,-28,-25,4,7
-24,-41,-128,-74,-3,28,20,-25,7
16,41,127,74,13,-15,-20,10,7
-9,9,14,6,5,-2,-10,-20,7
26,-20,-51,-27,-4,8,30,25,7
5,1,-31,21,8,4,-39,7,7
-7,0,-6,-23,-8,8,40,-1,7
-18,-7,16,4,-4,-19,-64,-15,7
-5,11,-40,1,8,22,29,-17,7
16,11,71,25,-5,-18,-26,-8,7
0,-30,-45,-26,-7,1,-4,-5,7
-3,9,63,-7,-23,-2,27,-1,7
12,8,1,20,5,18,-16,16,7
-8,0,6,33,35,-9,-5,-2,7
0,-2,-79,-61,-33,-8,-4,1,7
25,7,22,-12,0,20,67,30,7
-3,9,60,19,-4,-22,-89,-5,7
-5,-36,-96,-27,6,13,21,-14,7
-8,26,76,66,17,9,18,6,7
-4,-21,-32,-6,3,8,29,-18,7
3,8,-32,-12,-10,-6,-25,13,7
-6,-9,-15,-18,-10,-22,24,9,7
4,7,-21,45,21,7,-42,-14,7
-2,-15,-61,-61,-33,-8,29,-5,7
1,18,34,6,-2,-5,11,-4,7
-11,-16,12,20,7,10,0,5,7
7,-15,29,-6,2,4,3,-5,7
5,23,14,9,21,3,13,1,7
-1,-6,-22,-20,-15,0,31,10,7
-18,20,-9,25,2,-12,-37,-29,7
3,4,-11,-18,-4,-6,13,4,7
-4,-12,-16,24,13,6,-15,-4,7
16,-13,24,-22,-4,5,15,0,7
12,18,-36,-7,2,20,21,23,7
-3,1,-33,5,16,11,-7,-4,7
-2,36,27,-19,-19,-26,-17,4,7
-20,-43,-81,-10,0,-11,-22,-28,7
-2,14,55,15,-3,14,6,1,7
19,-19,-28,18,15,13,22,2,7
-13,-12,-32,-41,-27,-37,-40,-10,7
7,17,48,30,15,9,7,15,7
32,5,-33,-38,-12,-2,4,16,7
-37,-15,3,-3,5,1,23,-8,7
2,-16,46,-1,-9,10,-26,-19,7
11,25,98,51,3,-7,24,7,7
12,-8,32,9,3,-5,-18,6,7
-6,8,-24,-21,-21,-3,5,3,7
-16,-23,-39,-14,-3,3,35,9,7
10,32,42,-10,1,5,-22,-4,7
7,10,44,17,3,12,23,-5,7
16,10,-2,-2,-9,-3,12,21,7
-30,-26,-57,14,12,2,-47,-26,7
-11,0,40,3,-1,7,16,-3,7
7,13,-35,-6,0,-3,18,13,7
-3,1,7,-16,-4,-7,-28,-8,7
15,1,-33,3,1,13,35,15,7
-2,-9,-49,18,8,-15,-19,-3,7
-3,0,86,77,23,-7,-5,4,7
11,9,-31,-40,-24,1,21,8,7
7,8,25,13,-5,8,28,13,7
-3,-5,7,-2,10,6,-19,0,7
7,8,-64,-5,-16,0,7,5,7
-15,-16,-32,-2,6,-11,-9,-13,7
10,15,84,32,11,9,44,8,7
-4,4,-3,-3,-2,3,-21,8,7
-13,7,-82,-39,-7,-27,-41,-28,7
6,2,10,13,6,7,22,17,7
-14,-33,-59,2,-6,0,3,4,7
-9,5,7,5,7,9,-7,-27,7
20,14,17,0,0,13,32,30,7
-1,21,18,-23,-2,-10,-4,6,7
-40,-24,20,67,16,13,-11,-36,7
23,7,-38,-56,-28,-26,-6,21,7
-15,-12,24,27,23,10,-13,-13,7
0,-5,8,-52,-48,-15,13,-12,7
7,5,-61,-7,10,2,-12,-3,7
-7,6,-4,15,10,13,49,5,7
-6,1,12,4,-3,-15,-40,2,7
16,-9,6,28,25,17,17,9,7
4,26,44,25,5,9,30,16,7
-8,-1,-48,-4,-9,-39,-58,-19,7
-7,-26,9,-42,-7,10,9,-8,7
-1,17,-27,-11,-7,5,-1,-3,7
11,14,89,22,4,0,-5,3,7
2,-6,-7,12,8,11,68,22,7
-9,1,-23,20,0,3,-5,-5,7
0,-12,-9,-10,8,-9,-27,1,7
-11,3,-8,-46,-33,-9,-39,-49,7
19,-3,57,12,8,6,35,45,7
23,-12,-35,-7,-12,8,21,-1,7
-24,-15,34,36,17,-4,3,-18,7
-11,3,-18,-39,-31,-36,-96,-12,7
-5,-2,-37,-5,2,3,-5,-13,7
12,9,23,-13,-2,21,61,35,7
-5,-5,-18,16,12,-6,-16,-5,7
12,-8,-9,-18,-3,-5,5,6,7
12,8,10,12,-2,-8,-29,8,7
-24,-7,-13,14,4,-7,-34,-3,7
-1,10,26,25,12,2,39,-14,7
-5,-13,-3,-31,-28,-6,22,13,7
-21,-14,-24,-3,2,15,-23,-28,7
18,-4,-13,-13,7,-7,-16,-5,7
-17,-15,-53,3,3,4,-8,12,7
18,42,74,40,16,6,55,16,7
-13,-42,-40,-16,-1,-2,-16,-23,7
2,19,-55,-57,-23,-7,-35,19,7
-3,13,20,38,2,-28,-25,4,7
-24,-41,-128,-74,-3,28,20,-25,7
16,41,127,74,13,-15,-20,10,7
-9,9,14,6,5,-2,-10,-20,7
26,-20,-51,-27,-4,8,30,25,7
5,1,-31,21,8,4,-39,7,7
-7,0,-6,-23,-8,8,40,-1,7
-18,-7,16,4,-4,-19,-64,-15,7
-5,11,-40,1,8,22,29,-17,7
16,11,71,25,-5,-18,-26,-8,7
0,-30,-45,-26,-7,1,-4,-5,7
-3,9,63,-7,-23,-2,27,-1,7
12,8,1,20,5,18,-16,16,7
-8,0,6,33,35,-9,-5,-2,7
0,-2,-79,-61,-33,-8,-4,1,7
25,7,22,-12,0,20,67,30,7
-3,9,60,19,-4,-22,-89,-5,7
-5,-36,-96,-27,6,13,21,-14,7
-8,26,76,66,17,9,18,6,7
-4,-21,-32,-6,3,8,29,-18,7
3,8,-32,-12,-10,-6,-25,13,7
-6,-9,-15,-18,-10,-22,24,9,7
4,7,-21,45,21,7,-42,-14,7
-2,-15,-61,-61,-33,-8,29,-5,7
1,18,34,6,-2,-5,11,-4,7
-11,-16,12,20,7,10,0,5,7
7,-15,29,-6,2,4,3,-5,7
5,23,14,9,21,3,13,1,7
-1,-6,-22,-20,-15,0,31,10,7
-18,20,-9,25,2,-12,-37,-29,7
3,4,-11,-18,-4,-6,13,4,7
-4,-12,-16,24,13,6,-15,-4,7
16,-13,24,-22,-4,5,15,0,7
12,18,-36,-7,2,20,21,23,7
-3,1,-33,5,16,11,-7,-4,7
-2,36,27,-19,-19,-26,-17,4,7
-20,-43,-81,-10,0,-11,-22,-28,7
-2,14,55,15,-3,14,6,1,7
19,-19,-28,18,15,13,22,2,7
-13,-12,-32,-41,-27,-37,-40,-10,7
7,17,48,30,15,9,7,15,7
32,5,-33,-38,-12,-2,4,16,7
-37,-15,3,-3,5,1,23,-8,7
2,-16,46,-1,-9,10,-26,-19,7
11,25,98,51,3,-7,24,7,7
12,-8,32,9,3,-5,-18,6,7
-6,8,-24,-21,-21,-3,5,3,7
-16,-23,-39,-14,-3,3,35,9,7
10,32,42,-10,1,5,-22,-4,7
7,10,44,17,3,12,23,-5,7
16,10,-2,-2,-9,-3,12,21,7
-30,-26,-57,14,12,2,-47,-26,7
-11,0,40,3,-1,7,16,-3,7
7,13,-35,-6,0,-3,18,13,7
-3,1,7,-16,-4,-7,-28,-8,7
15,1,-33,3,1,13,35,15,7
-2,-9,-49,18,8,-15,-19,-3,7
-13,2,82,-25,-19,0,-2,-5,7
7,-14,-26,-27,0,2,1,0,7
0,6,68,32,6,7,5,6,7
4,-23,-50,-15,-10,-17,-6,-11,7
-9,5,13,30,4,-7,-3,-3,7
-6,-23,-42,-27,-7,1,-2,-1,7
-2,35,-7,5,6,-17,-60,0,7
13,2,88,22,6,11,2,-16,7
-9,-12,-33,12,4,-2,-1,1,7
-1,0,-25,-48,-18,-1,21,4,7
17,7,29,15,9,16,23,9,7
-20,-21,-34,-18,-10,-15,-8,3,7
8,15,11,41,19,4,-21,5,7
0,11,72,-2,-14,6,17,-8,7
-3,-35,14,25,17,4,10,-4,7
4,50,-2,-29,-22,9,14,4,7
-2,-30,-2,-23,-15,-8,6,7,7
-2,20,-45,28,18,5,3,2,7
8,-6,64,-7,-11,6,42,10,7
-16,-17,-21,-6,9,-1,-36,-16,7
-17,-2,-13,-40,-26,4,-11,-6,7
-5,-7,28,15,3,-5,10,-4,7
7,5,-61,-7,10,2,-12,-3,7
-7,6,-4,15,10,13,49,5,7
-6,1,12,4,-3,-15,-40,2,7
16,-9,6,28,25,17,17,9,7
4,26,44,25,5,9,30,16,7
-8,-1,-48,-4,-9,-39,-58,-19,7
-7,-26,9,-42,-7,10,9,-8,7
-1,17,-27,-11,-7,5,-1,-3,7
11,14,89,22,4,0,-5,3,7
2,-6,-7,12,8,11,68,22,7
-9,1,-23,20,0,3,-5,-5,7
0,-12,-9,-10,8,-9,-27,1,7
-11,3,-8,-46,-33,-9,-39,-49,7
19,-3,57,12,8,6,35,45,7
23,-12,-35,-7,-12,8,21,-1,7
-24,-15,34,36,17,-4,3,-18,7
-11,3,-18,-39,-31,-36,-96,-12,7
-5,-2,-37,-5,2,3,-5,-13,7
12,9,23,-13,-2,21,61,35,7
-5,-5,-18,16,12,-6,-16,-5,7
12,-8,-9,-18,-3,-5,5,6,7
12,8,10,12,-2,-8,-29,8,7
-24,-7,-13,14,4,-7,-34,-3,7
-1,10,26,25,12,2,39,-14,7
-5,-13,-3,-31,-28,-6,22,13,7
-21,-14,-24,-3,2,15,-23,-28,7
18,-4,-13,-13,7,-7,-16,-5,7
-17,-15,-53,3,3,4,-8,12,7
18,42,74,40,16,6,55,16,7
-13,-42,-40,-16,-1,-2,-16,-23,7
2,19,-55,-57,-23,-7,-35,19,7
-3,13,20,38,2,-28,-25,4,7
-24,-41,-128,-74,-3,28,20,-25,7
16,41,127,74,13,-15,-20,10,7
-9,9,14,6,5,-2,-10,-20,7
26,-20,-51,-27,-4,8,30,25,7
5,1,-31,21,8,4,-39,7,7
-7,0,-6,-23,-8,8,40,-1,7
-18,-7,16,4,-4,-19,-64,-15,7
-5,11,-40,1,8,22,29,-17,7
16,11,71,25,-5,-18,-26,-8,7
0,-30,-45,-26,-7,1,-4,-5,7
-3,9,63,-7,-23,-2,27,-1,7
12,8,1,20,5,18,-16,16,7
-8,0,6,33,35,-9,-5,-2,7
0,-2,-79,-61,-33,-8,-4,1,7
25,7,22,-12,0,20,67,30,7
-3,9,60,19,-4,-22,-89,-5,7
-5,-36,-96,-27,6,13,21,-14,7
-8,26,76,66,17,9,18,6,7
-4,-21,-32,-6,3,8,29,-18,7
3,8,-32,-12,-10,-6,-25,13,7
-6,-9,-15,-18,-10,-22,24,9,7
4,7,-21,45,21,7,-42,-14,7
-2,-15,-61,-61,-33,-8,29,-5,7
1,18,34,6,-2,-5,11,-4,7
-11,-16,12,20,7,10,0,5,7
7,-15,29,-6,2,4,3,-5,7
5,23,14,9,21,3,13,1,7
-1,-6,-22,-20,-15,0,31,10,7
-18,20,-9,25,2,-12,-37,-29,7
3,4,-11,-18,-4,-6,13,4,7
-4,-12,-16,24,13,6,-15,-4,7
16,-13,24,-22,-4,5,15,0,7
12,18,-36,-7,2,20,21,23,7
-3,1,-33,5,16,11,-7,-4,7
-2,36,27,-19,-19,-26,-17,4,7
-20,-43,-81,-10,0,-11,-22,-28,7
-2,14,55,15,-3,14,6,1,7
19,-19,-28,18,15,13,22,2,7
-13,-12,-32,-41,-27,-37,-40,-10,7
7,17,48,30,15,9,7,15,7
32,5,-33,-38,-12,-2,4,16,7
-37,-15,3,-3,5,1,23,-8,7
2,-16,46,-1,-9,10,-26,-19,7
11,25,98,51,3,-7,24,7,7
12,-8,32,9,3,-5,-18,6,7
-6,8,-24,-21,-21,-3,5,3,7
-16,-23,-39,-14,-3,3,35,9,7
10,32,42,-10,1,5,-22,-4,7
7,10,44,17,3,12,23,-5,7
16,10,-2,-2,-9,-3,12,21,7
-30,-26,-57,14,12,2,-47,-26,7
-11,0,40,3,-1,7,16,-3,7
7,13,-35,-6,0,-3,18,13,7
-3,1,7,-16,-4,-7,-28,-8,7
15,1,-33,3,1,13,35,15,7
-2,-9,-49,18,8,-15,-19,-3,7
-13,2,82,-25,-19,0,-2,-5,7
7,-14,-26,-27,0,2,1,0,7
0,6,68,32,6,7,5,6,7
4,-23,-50,-15,-10,-17,-6,-11,7
-9,5,13,30,4,-7,-3,-3,7
-6,-23,-42,-27,-7,1,-2,-1,7
-2,35,-7,5,6,-17,-60,0,7
13,2,88,22,6,11,2,-16,7
-9,-12,-33,12,4,-2,-1,1,7
-1,0,-25,-48,-18,-1,21,4,7
17,7,29,15,9,16,23,9,7
-20,-21,-34,-18,-10,-15,-8,3,7
8,15,11,41,19,4,-21,5,7
0,11,72,-2,-14,6,17,-8,7
-3,-35,14,25,17,4,10,-4,7
4,50,-2,-29,-22,9,14,4,7
-2,-30,-2,-23,-15,-8,6,7,7
-2,20,-45,28,18,5,3,2,7
8,-6,64,-7,-11,6,42,10,7
-16,-17,-21,-6,9,-1,-36,-16,7
-17,-2,-13,-40,-26,4,-11,-6,7
-5,-7,28,15,3,-5,10,-4,7
22,46,9,-3,1,-35,-49,-6,7
-1,-34,-36,24,10,24,52,10,7
-26,15,23,-23,-4,-7,-36,-29,7
-14,-22,-14,35,14,-20,-43,-21,7
3,2,44,-46,-48,-1,22,7,7
-1,9,-6,-19,-6,-9,-3,21,7
16,-8,-65,16,16,10,35,6,7
-3,-7,4,-20,-6,-9,-12,18,7
-8,-3,14,38,16,4,12,-26,7
18,25,7,-2,10,6,-24,3,7
19,-7,-22,-19,-2,3,47,19,7
26,3,47,57,9,9,62,64,7
-40,-7,-45,-17,-3,7,-67,-89,7
-15,-30,-13,-12,-13,-18,-16,-10,7
-2,9,-12,-3,8,-4,-11,-2,7
23,8,21,-8,-8,-1,19,8,7
15,-15,-41,-7,12,1,27,45,7
-17,-24,-24,-15,-8,1,-15,-13,7
-5,-13,-3,-31,-28,-6,22,13,7
-21,-14,-24,-3,2,15,-23,-28,7
18,-4,-13,-13,7,-7,-16,-5,7
-17,-15,-53,3,3,4,-8,12,7
18,42,74,40,16,6,55,16,7
-13,-42,-40,-16,-1,-2,-16,-23,7
2,19,-55,-57,-23,-7,-35,19,7
-3,13,20,38,2,-28,-25,4,7
-24,-41,-128,-74,-3,28,20,-25,7
16,41,127,74,13,-15,-20,10,7
-9,9,14,6,5,-2,-10,-20,7
26,-20,-51,-27,-4,8,30,25,7
5,1,-31,21,8,4,-39,7,7
-7,0,-6,-23,-8,8,40,-1,7
-18,-7,16,4,-4,-19,-64,-15,7
-5,11,-40,1,8,22,29,-17,7
16,11,71,25,-5,-18,-26,-8,7
0,-30,-45,-26,-7,1,-4,-5,7
-3,9,63,-7,-23,-2,27,-1,7
12,8,1,20,5,18,-16,16,7
-8,0,6,33,35,-9,-5,-2,7
0,-2,-79,-61,-33,-8,-4,1,7
25,7,22,-12,0,20,67,30,7
-3,9,60,19,-4,-22,-89,-5,7
-5,-36,-96,-27,6,13,21,-14,7
-8,26,76,66,17,9,18,6,7
-4,-21,-32,-6,3,8,29,-18,7
3,8,-32,-12,-10,-6,-25,13,7
-6,-9,-15,-18,-10,-22,24,9,7
4,7,-21,45,21,7,-42,-14,7
-2,-15,-61,-61,-33,-8,29,-5,7
1,18,34,6,-2,-5,11,-4,7
-11,-16,12,20,7,10,0,5,7
7,-15,29,-6,2,4,3,-5,7
5,23,14,9,21,3,13,1,7
-1,-6,-22,-20,-15,0,31,10,7
-18,20,-9,25,2,-12,-37,-29,7
3,4,-11,-18,-4,-6,13,4,7
-4,-12,-16,24,13,6,-15,-4,7
16,-13,24,-22,-4,5,15,0,7
12,18,-36,-7,2,20,21,23,7
-3,1,-33,5,16,11,-7,-4,7
-2,36,27,-19,-19,-26,-17,4,7
-20,-43,-81,-10,0,-11,-22,-28,7
-2,14,55,15,-3,14,6,1,7
19,-19,-28,18,15,13,22,2,7
-13,-12,-32,-41,-27,-37,-40,-10,7
7,17,48,30,15,9,7,15,7
32,5,-33,-38,-12,-2,4,16,7
-37,-15,3,-3,5,1,23,-8,7
2,-16,46,-1,-9,10,-26,-19,7
11,25,98,51,3,-7,24,7,7
12,-8,32,9,3,-5,-18,6,7
-6,8,-24,-21,-21,-3,5,3,7
-16,-23,-39,-14,-3,3,35,9,7
10,32,42,-10,1,5,-22,-4,7
7,10,44,17,3,12,23,-5,7
16,10,-2,-2,-9,-3,12,21,7
-30,-26,-57,14,12,2,-47,-26,7
-11,0,40,3,-1,7,16,-3,7
7,13,-35,-6,0,-3,18,13,7
-3,1,7,-16,-4,-7,-28,-8,7
15,1,-33,3,1,13,35,15,7
-2,-9,-49,18,8,-15,-19,-3,7
-13,2,82,-25,-19,0,-2,-5,7
7,-14,-26,-27,0,2,1,0,7
0,6,68,32,6,7,5,6,7
4,-23,-50,-15,-10,-17,-6,-11,7
-9,5,13,30,4,-7,-3,-3,7
-6,-23,-42,-27,-7,1,-2,-1,7
-2,35,-7,5,6,-17,-60,0,7
13,2,88,22,6,11,2,-16,7
-9,-12,-33,12,4,-2,-1,1,7
-1,0,-25,-48,-18,-1,21,4,7
17,7,29,15,9,16,23,9,7
-20,-21,-34,-18,-10,-15,-8,3,7
8,15,11,41,19,4,-21,5,7
0,11,72,-2,-14,6,17,-8,7
-3,-35,14,25,17,4,10,-4,7
4,50,-2,-29,-22,9,14,4,7
-2,-30,-2,-23,-15,-8,6,7,7
-2,20,-45,28,18,5,3,2,7
8,-6,64,-7,-11,6,42,10,7
-16,-17,-21,-6,9,-1,-36,-16,7
-17,-2,-13,-40,-26,4,-11,-6,7
-5,-7,28,15,3,-5,10,-4,7
22,46,9,-3,1,-35,-49,-6,7
-1,-34,-36,24,10,24,52,10,7
-26,15,23,-23,-4,-7,-36,-29,7
-14,-22,-14,35,14,-20,-43,-21,7
3,2,44,-46,-48,-1,22,7,7
-1,9,-6,-19,-6,-9,-3,21,7
16,-8,-65,16,16,10,35,6,7
-3,-7,4,-20,-6,-9,-12,18,7
-8,-3,14,38,16,4,12,-26,7
18,25,7,-2,10,6,-24,3,7
19,-7,-22,-19,-2,3,47,19,7
26,3,47,57,9,9,62,64,7
-40,-7,-45,-17,-3,7,-67,-89,7
-15,-30,-13,-12,-13,-18,-16,-10,7
-2,9,-12,-3,8,-4,-11,-2,7
23,8,21,-8,-8,-1,19,8,7
15,-15,-41,-7,12,1,27,45,7
-17,-24,-24,-15,-8,1,-15,-13,7
21,-1,22,-17,-6,-11,17,-3,7
-5,35,73,33,10,12,8,9,7
-28,-35,-66,8,4,7,-8,-17,7
0,9,53,16,2,-28,-39,-9,7
19,24,4,24,4,10,-3,11,7
-49,-49,-23,-29,-14,-7,-25,-32,7
34,55,37,-7,2,8,24,21,7
13,-8,-25,10,6,7,20,16,7
19,13,6,5,14,10,20,18,7
-35,-28,1,-16,-30,-24,-55,-35,7
16,-7,-48,1,2,-31,-16,5,7
-30,-28,1,-4,1,9,1,14,7
8,10,47,31,6,5,-10,-22,7
25,43,-24,-14,5,3,2,4,7
-11,-11,-26,-12,-2,10,-26,-16,7
14,29,34,-7,-9,4,37,8,7
-23,-43,-29,12,-6,-30,-49,-6,7
22,20,-2,-4,-1,6,-13,-9,7
-21,20,-2,15,0,3,18,7,7
-10,-27,-2,-20,0,-1,1,-7,7
-8,9,-46,-12,-1,5,-6,2,7
17,2,-2,29,16,9,20,3,7
-5,-18,1,-29,-17,-6,3,3,7
-2,-9,-39,-21,-8,3,2,-2,7
25,7,22,-12,0,20,67,30,7
-3,9,60,19,-4,-22,-89,-5,7
-5,-36,-96,-27,6,13,21,-14,7
-8,26,76,66,17,9,18,6,7
-4,-21,-32,-6,3,8,29,-18,7
3,8,-32,-12,-10,-6,-25,13,7
-6,-9,-15,-18,-10,-22,24,9,7
4,7,-21,45,21,7,-42,-14,7
-2,-15,-61,-61,-33,-8,29,-5,7
1,18,34,6,-2,-5,11,-4,7
-11,-16,12,20,7,10,0,5,7
7,-15,29,-6,2,4,3,-5,7
5,23,14,9,21,3,13,1,7
-1,-6,-22,-20,-15,0,31,10,7
-18,20,-9,25,2,-12,-37,-29,7
3,4,-11,-18,-4,-6,13,4,7
-4,-12,-16,24,13,6,-15,-4,7
16,-13,24,-22,-4,5,15,0,7
12,18,-36,-7,2,20,21,23,7
-3,1,-33,5,16,11,-7,-4,7
-2,36,27,-19,-19,-26,-17,4,7
-20,-43,-81,-10,0,-11,-22,-28,7
-2,14,55,15,-3,14,6,1,7
19,-19,-28,18,15,13,22,2,7
-13,-12,-32,-41,-27,-37,-40,-10,7
7,17,48,30,15,9,7,15,7
32,5,-33,-38,-12,-2,4,16,7
-37,-15,3,-3,5,1,23,-8,7
2,-16,46,-1,-9,10,-26,-19,7
11,25,98,51,3,-7,24,7,7
12,-8,32,9,3,-5,-18,6,7
-6,8,-24,-21,-21,-3,5,3,7
-16,-23,-39,-14,-3,3,35,9,7
10,32,42,-10,1,5,-22,-4,7
7,10,44,17,3,12,23,-5,7
16,10,-2,-2,-9,-3,12,21,7
-30,-26,-57,14,12,2,-47,-26,7
-11,0,40,3,-1,7,16,-3,7
7,13,-35,-6,0,-3,18,13,7
-3,1,7,-16,-4,-7,-28,-8,7
15,1,-33,3,1,13,35,15,7
-2,-9,-49,18,8,-15,-19,-3,7
-13,2,82,-25,-19,0,-2,-5,7
7,-14,-26,-27,0,2,1,0,7
0,6,68,32,6,7,5,6,7
4,-23,-50,-15,-10,-17,-6,-11,7
-9,5,13,30,4,-7,-3,-3,7
-6,-23,-42,-27,-7,1,-2,-1,7
-2,35,-7,5,6,-17,-60,0,7
13,2,88,22,6,11,2,-16,7
-9,-12,-33,12,4,-2,-1,1,7
-1,0,-25,-48,-18,-1,21,4,7
17,7,29,15,9,16,23,9,7
-20,-21,-34,-18,-10,-15,-8,3,7
8,15,11,41,19,4,-21,5,7
0,11,72,-2,-14,6,17,-8,7
-3,-35,14,25,17,4,10,-4,7
4,50,-2,-29,-22,9,14,4,7
-2,-30,-2,-23,-15,-8,6,7,7
-2,20,-45,28,18,5,3,2,7
8,-6,64,-7,-11,6,42,10,7
-16,-17,-21,-6,9,-1,-36,-16,7
-17,-2,-13,-40,-26,4,-11,-6,7
-5,-7,28,15,3,-5,10,-4,7
22,46,9,-3,1,-35,-49,-6,7
-1,-34,-36,24,10,24,52,10,7
-26,15,23,-23,-4,-7,-36,-29,7
-14,-22,-14,35,14,-20,-43,-21,7
3,2,44,-46,-48,-1,22,7,7
-1,9,-6,-19,-6,-9,-3,21,7
16,-8,-65,16,16,10,35,6,7
-3,-7,4,-20,-6,-9,-12,18,7
-8,-3,14,38,16,4,12,-26,7
18,25,7,-2,10,6,-24,3,7
19,-7,-22,-19,-2,3,47,19,7
26,3,47,57,9,9,62,64,7
-40,-7,-45,-17,-3,7,-67,-89,7
-15,-30,-13,-12,-13,-18,-16,-10,7
-2,9,-12,-3,8,-4,-11,-2,7
23,8,21,-8,-8,-1,19,8,7
15,-15,-41,-7,12,1,27,45,7
-17,-24,-24,-15,-8,1,-15,-13,7
21,-1,22,-17,-6,-11,17,-3,7
-5,35,73,33,10,12,8,9,7
-28,-35,-66,8,4,7,-8,-17,7
0,9,53,16,2,-28,-39,-9,7
19,24,4,24,4,10,-3,11,7
-49,-49,-23,-29,-14,-7,-25,-32,7
34,55,37,-7,2,8,24,21,7
13,-8,-25,10,6,7,20,16,7
19,13,6,5,14,10,20,18,7
-35,-28,1,-16,-30,-24,-55,-35,7
16,-7,-48,1,2,-31,-16,5,7
-30,-28,1,-4,1,9,1,14,7
8,10,47,31,6,5,-10,-22,7
25,43,-24,-14,5,3,2,4,7
-11,-11,-26,-12,-2,10,-26,-16,7
14,29,34,-7,-9,4,37,8,7
-23,-43,-29,12,-6,-30,-49,-6,7
22,20,-2,-4,-1,6,-13,-9,7
-21,20,-2,15,0,3,18,7,7
-10,-27,-2,-20,0,-1,1,-7,7
-8,9,-46,-12,-1,5,-6,2,7
17,2,-2,29,16,9,20,3,7
-5,-18,1,-29,-17,-6,3,3,7
-2,-9,-39,-21,-8,3,2,-2,7
1,-6,13,37,5,4,5,3,7
-19,-6,19,-2,-1,3,-1,-13,7
2,-18,-23,9,11,19,36,10,7
2,12,-16,-1,-7,-57,-84,-26,7
-4,-17,7,17,12,30,62,18,7
19,-15,12,-26,-7,-36,-55,-19,7
3,36,-79,-25,-2,10,19,8,7
7,-4,16,34,11,17,32,5,7
1,-11,-6,-12,-9,2,1,-2,7
-20,1,-3,35,8,-5,-8,-1,7
11,-27,-7,-21,11,-4,1,30,7
1,31,13,-23,-40,-6,-30,-39,7
-6,0,-48,-16,3,-6,-7,4,7
1,8,-35,-9,8,23,25,2,7
17,-14,77,54,15,-4,28,13,7
9,3,-65,5,20,16,2,20,7
-16,16,36,-5,-17,-19,-30,-20,7
-5,7,9,-26,-14,3,11,-1,7
-11,-16,4,4,-4,-3,28,10,7
-1,-6,-52,6,2,-4,-31,-6,7
-4,-29,-50,-28,-7,1,0,-7,7
8,33,27,4,7,1,-8,-9,7
-2,14,55,15,-3,14,6,1,7
19,-19,-28,18,15,13,22,2,7
-13,-12,-32,-41,-27,-37,-40,-10,7
7,17,48,30,15,9,7,15,7
32,5,-33,-38,-12,-2,4,16,7
-37,-15,3,-3,5,1,23,-8,7
2,-16,46,-1,-9,10,-26,-19,7
11,25,98,51,3,-7,24,7,7
12,-8,32,9,3,-5,-18,6,7
-6,8,-24,-21,-21,-3,5,3,7
-16,-23,-39,-14,-3,3,35,9,7
10,32,42,-10,1,5,-22,-4,7
7,10,44,17,3,12,23,-5,7
16,10,-2,-2,-9,-3,12,21,7
-30,-26,-57,14,12,2,-47,-26,7
-11,0,40,3,-1,7,16,-3,7
7,13,-35,-6,0,-3,18,13,7
-3,1,7,-16,-4,-7,-28,-8,7
15,1,-33,3,1,13,35,15,7
-2,-9,-49,18,8,-15,-19,-3,7
-13,2,82,-25,-19,0,-2,-5,7
7,-14,-26,-27,0,2,1,0,7
0,6,68,32,6,7,5,6,7
4,-23,-50,-15,-10,-17,-6,-11,7
-9,5,13,30,4,-7,-3,-3,7
-6,-23,-42,-27,-7,1,-2,-1,7
-2,35,-7,5,6,-17,-60,0,7
13,2,88,22,6,11,2,-16,7
-9,-12,-33,12,4,-2,-1,1,7
-1,0,-25,-48,-18,-1,21,4,7
17,7,29,15,9,16,23,9,7
-20,-21,-34,-18,-10,-15,-8,3,7
8,15,11,41,19,4,-21,5,7
0,11,72,-2,-14,6,17,-8,7
-3,-35,14,25,17,4,10,-4,7
4,50,-2,-29,-22,9,14,4,7
-2,-30,-2,-23,-15,-8,6,7,7
-2,20,-45,28,18,5,3,2,7
8,-6,64,-7,-11,6,42,10,7
-16,-17,-21,-6,9,-1,-36,-16,7
-17,-2,-13,-40,-26,4,-11,-6,7
-5,-7,28,15,3,-5,10,-4,7
22,46,9,-3,1,-35,-49,-6,7
-1,-34,-36,24,10,24,52,10,7
-26,15,23,-23,-4,-7,-36,-29,7
-14,-22,-14,35,14,-20,-43,-21,7
3,2,44,-46,-48,-1,22,7,7
-1,9,-6,-19,-6,-9,-3,21,7
16,-8,-65,16,16,10,35,6,7
-3,-7,4,-20,-6,-9,-12,18,7
-8,-3,14,38,16,4,12,-26,7
18,25,7,-2,10,6,-24,3,7
19,-7,-22,-19,-2,3,47,19,7
26,3,47,57,9,9,62,64,7
-40,-7,-45,-17,-3,7,-67,-89,7
-15,-30,-13,-12,-13,-18,-16,-10,7
-2,9,-12,-3,8,-4,-11,-2,7
23,8,21,-8,-8,-1,19,8,7
15,-15,-41,-7,12,1,27,45,7
-17,-24,-24,-15,-8,1,-15,-13,7
21,-1,22,-17,-6,-11,17,-3,7
-5,35,73,33,10,12,8,9,7
-28,-35,-66,8,4,7,-8,-17,7
0,9,53,16,2,-28,-39,-9,7
19,24,4,24,4,10,-3,11,7
-49,-49,-23,-29,-14,-7,-25,-32,7
34,55,37,-7,2,8,24,21,7
13,-8,-25,10,6,7,20,16,7
19,13,6,5,14,10,20,18,7
-35,-28,1,-16,-30,-24,-55,-35,7
16,-7,-48,1,2,-31,-16,5,7
-30,-28,1,-4,1,9,1,14,7
8,10,47,31,6,5,-10,-22,7
25,43,-24,-14,5,3,2,4,7
-11,-11,-26,-12,-2,10,-26,-16,7
14,29,34,-7,-9,4,37,8,7
-23,-43,-29,12,-6,-30,-49,-6,7
22,20,-2,-4,-1,6,-13,-9,7
-21,20,-2,15,0,3,18,7,7
-10,-27,-2,-20,0,-1,1,-7,7
-8,9,-46,-12,-1,5,-6,2,7
17,2,-2,29,16,9,20,3,7
-5,-18,1,-29,-17,-6,3,3,7
-2,-9,-39,-21,-8,3,2,-2,7
1,-6,13,37,5,4,5,3,7
-19,-6,19,-2,-1,3,-1,-13,7
2,-18,-23,9,11,19,36,10,7
2,12,-16,-1,-7,-57,-84,-26,7
-4,-17,7,17,12,30,62,18,7
19,-15,12,-26,-7,-36,-55,-19,7
3,36,-79,-25,-2,10,19,8,7
7,-4,16,34,11,17,32,5,7
1,-11,-6,-12,-9,2,1,-2,7
-20,1,-3,35,8,-5,-8,-1,7
11,-27,-7,-21,11,-4,1,30,7
1,31,13,-23,-40,-6,-30,-39,7
-6,0,-48,-16,3,-6,-7,4,7
1,8,-35,-9,8,23,25,2,7
17,-14,77,54,15,-4,28,13,7
9,3,-65,5,20,16,2,20,7
-16,16,36,-5,-17,-19,-30,-20,7
-5,7,9,-26,-14,3,11,-1,7
-11,-16,4,4,-4,-3,28,10,7
-1,-6,-52,6,2,-4,-31,-6,7
-4,-29,-50,-28,-7,1,0,-7,7
8,33,27,4,7,1,-8,-9,7
8,8,-19,11,-4,5,9,16,7
-30,2,98,20,29,17,55,-8,7
-11,-17,-74,-64,-34,-8,-32,-11,7
-1,-30,-83,26,8,-2,1,20,7
17,57,31,-3,14,-2,-25,-27,7
3,-5,-45,5,-3,4,31,17,7
6,-5,44,36,29,11,25,4,7
0,11,52,-3,-20,-13,-41,-22,7
-24,-5,-25,10,12,33,45,2,7
0,-5,-22,-18,-12,-57,-85,-6,7
16,2,-3,-16,-8,9,63,24,7
0,-4,-16,26,9,2,-17,-6,7
-19,-23,-3,-44,-32,-17,-42,-11,7
17,29,63,13,10,14,35,6,7
-7,5,23,11,-4,-3,-13,2,7
19,6,0,-1,11,8,12,3,7
-32,-16,-1,5,-2,-2,-12,-15,7
-10,-41,-30,-14,-7,11,16,4,7
10,16,0,3,13,-4,-17,-3,7
-1,-7,-9,9,9,9,28,10,7
4,5,31,-24,-32,-18,-27,-9,7
37,-8,-45,10,12,24,47,31,7
-13,2,82,-25,-19,0,-2,-5,7
7,-14,-26,-27,0,2,1,0,7
0,6,68,32,6,7,5,6,7
4,-23,-50,-15,-10,-17,-6,-11,7
-9,5,13,30,4,-7,-3,-3,7
-6,-23,-42,-27,-7,1,-2,-1,7
-2,35,-7,5,6,-17,-60,0,7
13,2,88,22,6,11,2,-16,7
-9,-12,-33,12,4,-2,-1,1,7
-1,0,-25,-48,-18,-1,21,4,7
17,7,29,15,9,16,23,9,7
-20,-21,-34,-18,-10,-15,-8,3,7
8,15,11,41,19,4,-21,5,7
0,11,72,-2,-14,6,17,-8,7
-3,-35,14,25,17,4,10,-4,7
4,50,-2,-29,-22,9,14,4,7
-2,-30,-2,-23,-15,-8,6,7,7
-2,20,-45,28,18,5,3,2,7
8,-6,64,-7,-11,6,42,10,7
-16,-17,-21,-6,9,-1,-36,-16,7
-17,-2,-13,-40,-26,4,-11,-6,7
-5,-7,28,15,3,-5,10,-4,7
22,46,9,-3,1,-35,-49,-6,7
-1,-34,-36,24,10,24,52,10,7
-26,15,23,-23,-4,-7,-36,-29,7
-14,-22,-14,35,14,-20,-43,-21,7
3,2,44,-46,-48,-1,22,7,7
-1,9,-6,-19,-6,-9,-3,21,7
16,-8,-65,16,16,10,35,6,7
-3,-7,4,-20,-6,-9,-12,18,7
-8,-3,14,38,16,4,12,-26,7
18,25,7,-2,10,6,-24,3,7
19,-7,-22,-19,-2,3,47,19,7
26,3,47,57,9,9,62,64,7
-40,-7,-45,-17,-3,7,-67,-89,7
-15,-30,-13,-12,-13,-18,-16,-10,7
-2,9,-12,-3,8,-4,-11,-2,7
23,8,21,-8,-8,-1,19,8,7
15,-15,-41,-7,12,1,27,45,7
-17,-24,-24,-15,-8,1,-15,-13,7
21,-1,22,-17,-6,-11,17,-3,7
-5,35,73,33,10,12,8,9,7
-28,-35,-66,8,4,7,-8,-17,7
0,9,53,16,2,-28,-39,-9,7
19,24,4,24,4,10,-3,11,7
-49,-49,-23,-29,-14,-7,-25,-32,7
34,55,37,-7,2,8,24,21,7
13,-8,-25,10,6,7,20,16,7
19,13,6,5,14,10,20,18,7
-35,-28,1,-16,-30,-24,-55,-35,7
16,-7,-48,1,2,-31,-16,5,7
-30,-28,1,-4,1,9,1,14,7
8,10,47,31,6,5,-10,-22,7
25,43,-24,-14,5,3,2,4,7
-11,-11,-26,-12,-2,10,-26,-16,7
14,29,34,-7,-9,4,37,8,7
-23,-43,-29,12,-6,-30,-49,-6,7
22,20,-2,-4,-1,6,-13,-9,7
-21,20,-2,15,0,3,18,7,7
-10,-27,-2,-20,0,-1,1,-7,7
-8,9,-46,-12,-1,5,-6,2,7
17,2,-2,29,16,9,20,3,7
-5,-18,1,-29,-17,-6,3,3,7
-2,-9,-39,-21,-8,3,2,-2,7
1,-6,13,37,5,4,5,3,7
-19,-6,19,-2,-1,3,-1,-13,7
2,-18,-23,9,11,19,36,10,7
2,12,-16,-1,-7,-57,-84,-26,7
-4,-17,7,17,12,30,62,18,7
19,-15,12,-26,-7,-36,-55,-19,7
3,36,-79,-25,-2,10,19,8,7
7,-4,16,34,11,17,32,5,7
1,-11,-6,-12,-9,2,1,-2,7
-20,1,-3,35,8,-5,-8,-1,7
11,-27,-7,-21,11,-4,1,30,7
1,31,13,-23,-40,-6,-30,-39,7
-6,0,-48,-16,3,-6,-7,4,7
1,8,-35,-9,8,23,25,2,7
17,-14,77,54,15,-4,28,13,7
9,3,-65,5,20,16,2,20,7
-16,16,36,-5,-17,-19,-30,-20,7
-5,7,9,-26,-14,3,11,-1,7
-11,-16,4,4,-4,-3,28,10,7
-1,-6,-52,6,2,-4,-31,-6,7
-4,-29,-50,-28,-7,1,0,-7,7
8,33,27,4,7,1,-8,-9,7
8,8,-19,11,-4,5,9,16,7
-30,2,98,20,29,17,55,-8,7
-11,-17,-74,-64,-34,-8,-32,-11,7
-1,-30,-83,26,8,-2,1,20,7
17,57,31,-3,14,-2,-25,-27,7
3,-5,-45,5,-3,4,31,17,7
6,-5,44,36,29,11,25,4,7
0,11,52,-3,-20,-13,-41,-22,7
-24,-5,-25,10,12,33,45,2,7
0,-5,-22,-18,-12,-57,-85,-6,7
16,2,-3,-16,-8,9,63,24,7
0,-4,-16,26,9,2,-17,-6,7
-19,-23,-3,-44,-32,-17,-42,-11,7
17,29,63,13,10,14,35,6,7
-7,5,23,11,-4,-3,-13,2,7
19,6,0,-1,11,8,12,3,7
-32,-16,-1,5,-2,-2,-12,-15,7
-10,-41,-30,-14,-7,11,16,4,7
10,16,0,3,13,-4,-17,-3,7
-1,-7,-9,9,9,9,28,10,7
4,5,31,-24,-32,-18,-27,-9,7
37,-8,-45,10,12,24,47,31,7
-41,-1,1,2,5,-17,-44,-23,7
12,-1,-28,-20,-5,8,26,0,7
-7,-13,3,9,8,15,11,7,7
6,4,-10,14,-6,-50,-66,-7,7
11,6,18,-6,-12,-3,-7,-10,7
-4,8,25,-31,-17,1,24,1,7
7,-13,-31,5,-4,-7,1,3,7
0,17,76,17,11,27,29,11,7
6,1,29,28,6,-2,25,12,7
-65,1,-95,-50,-26,-15,-52,-25,7
3,2,80,13,3,1,6,-8,7
-7,1,1,-5,-2,17,29,5,7
8,2,-2,5,4,-16,-25,-1,7
11,-1,42,4,-1,12,34,11,7
-8,1,-94,-9,8,-14,-53,4,7
-15,20,20,-16,-1,14,19,-11,7
23,-21,-4,-5,1,32,29,15,7
-9,21,31,25,8,-26,-11,3,7
-4,-10,-6,3,-1,-15,-22,-2,7
-27,-14,-22,-30,-21,-5,-23,-22,7
-17,-2,-13,-40,-26,4,-11,-6,7
-5,-7,28,15,3,-5,10,-4,7
22,46,9,-3,1,-35,-49,-6,7
-1,-34,-36,24,10,24,52,10,7
-26,15,23,-23,-4,-7,-36,-29,7
-14,-22,-14,35,14,-20,-43,-21,7
3,2,44,-46,-48,-1,22,7,7
-1,9,-6,-19,-6,-9,-3,21,7
16,-8,-65,16,16,10,35,6,7
-3,-7,4,-20,-6,-9,-12,18,7
-8,-3,14,38,16,4,12,-26,7
18,25,7,-2,10,6,-24,3,7
19,-7,-22,-19,-2,3,47,19,7
26,3,47,57,9,9,62,64,7
-40,-7,-45,-17,-3,7,-67,-89,7
-15,-30,-13,-12,-13,-18,-16,-10,7
-2,9,-12,-3,8,-4,-11,-2,7
23,8,21,-8,-8,-1,19,8,7
15,-15,-41,-7,12,1,27,45,7
-17,-24,-24,-15,-8,1,-15,-13,7
21,-1,22,-17,-6,-11,17,-3,7
-5,35,73,33,10,12,8,9,7
-28,-35,-66,8,4,7,-8,-17,7
0,9,53,16,2,-28,-39,-9,7
19,24,4,24,4,10,-3,11,7
-49,-49,-23,-29,-14,-7,-25,-32,7
34,55,37,-7,2,8,24,21,7
13,-8,-25,10,6,7,20,16,7
19,13,6,5,14,10,20,18,7
-35,-28,1,-16,-30,-24,-55,-35,7
16,-7,-48,1,2,-31,-16,5,7
-30,-28,1,-4,1,9,1,14,7
8,10,47,31,6,5,-10,-22,7
25,43,-24,-14,5,3,2,4,7
-11,-11,-26,-12,-2,10,-26,-16,7
14,29,34,-7,-9,4,37,8,7
-23,-43,-29,12,-6,-30,-49,-6,7
22,20,-2,-4,-1,6,-13,-9,7
-21,20,-2,15,0,3,18,7,7
-10,-27,-2,-20,0,-1,1,-7,7
-8,9,-46,-12,-1,5,-6,2,7
17,2,-2,29,16,9,20,3,7
-5,-18,1,-29,-17,-6,3,3,7
-2,-9,-39,-21,-8,3,2,-2,7
1,-6,13,37,5,4,5,3,7
-19,-6,19,-2,-1,3,-1,-13,7
2,-18,-23,9,11,19,36,10,7
2,12,-16,-1,-7,-57,-84,-26,7
-4,-17,7,17,12,30,62,18,7
19,-15,12,-26,-7,-36,-55,-19,7
3,36,-79,-25,-2,10,19,8,7
7,-4,16,34,11,17,32,5,7
1,-11,-6,-12,-9,2,1,-2,7
-20,1,-3,35,8,-5,-8,-1,7
11,-27,-7,-21,11,-4,1,30,7
1,31,13,-23,-40,-6,-30,-39,7
-6,0,-48,-16,3,-6,-7,4,7
1,8,-35,-9,8,23,25,2,7
17,-14,77,54,15,-4,28,13,7
9,3,-65,5,20,16,2,20,7
-16,16,36,-5,-17,-19,-30,-20,7
-5,7,9,-26,-14,3,11,-1,7
-11,-16,4,4,-4,-3,28,10,7
-1,-6,-52,6,2,-4,-31,-6,7
-4,-29,-50,-28,-7,1,0,-7,7
8,33,27,4,7,1,-8,-9,7
8,8,-19,11,-4,5,9,16,7
-30,2,98,20,29,17,55,-8,7
-11,-17,-74,-64,-34,-8,-32,-11,7
-1,-30,-83,26,8,-2,1,20,7
17,57,31,-3,14,-2,-25,-27,7
3,-5,-45,5,-3,4,31,17,7
6,-5,44,36,29,11,25,4,7
0,11,52,-3,-20,-13,-41,-22,7
-24,-5,-25,10,12,33,45,2,7
0,-5,-22,-18,-12,-57,-85,-6,7
16,2,-3,-16,-8,9,63,24,7
0,-4,-16,26,9,2,-17,-6,7
-19,-23,-3,-44,-32,-17,-42,-11,7
17,29,63,13,10,14,35,6,7
-7,5,23,11,-4,-3,-13,2,7
19,6,0,-1,11,8,12,3,7
-32,-16,-1,5,-2,-2,-12,-15,7
-10,-41,-30,-14,-7,11,16,4,7
10,16,0,3,13,-4,-17,-3,7
-1,-7,-9,9,9,9,28,10,7
4,5,31,-24,-32,-18,-27,-9,7
37,-8,-45,10,12,24,47,31,7
-41,-1,1,2,5,-17,-44,-23,7
12,-1,-28,-20,-5,8,26,0,7
-7,-13,3,9,8,15,11,7,7
6,4,-10,14,-6,-50,-66,-7,7
11,6,18,-6,-12,-3,-7,-10,7
-4,8,25,-31,-17,1,24,1,7
7,-13,-31,5,-4,-7,1,3,7
0,17,76,17,11,27,29,11,7
6,1,29,28,6,-2,25,12,7
-65,1,-95,-50,-26,-15,-52,-25,7
3,2,80,13,3,1,6,-8,7
-7,1,1,-5,-2,17,29,5,7
8,2,-2,5,4,-16,-25,-1,7
11,-1,42,4,-1,12,34,11,7
-8,1,-94,-9,8,-14,-53,4,7
-15,20,20,-16,-1,14,19,-11,7
23,-21,-4,-5,1,32,29,15,7
-9,21,31,25,8,-26,-11,3,7
-4,-10,-6,3,-1,-15,-22,-2,7
-27,-14,-22,-30,-21,-5,-23,-22,7
-34,-14,57,20,8,10,5,-11,7
-1,-13,-98,-29,-1,8,11,1,7
12,3,82,19,4,-3,7,-9,7
21,16,28,13,0,-2,-10,4,7
-20,-19,-44,-17,2,-6,-15,-3,7
13,4,2,-16,-21,-1,10,14,7
5,13,47,11,9,5,22,6,7
4,-3,43,7,6,13,14,-4,7
4,0,-23,-3,-11,-18,-35,-2,7
-8,3,67,34,15,-9,-13,-11,7
18,-4,-5,10,0,3,-12,-2,7
-3,-2,-63,-10,18,17,34,1,7
8,10,17,-32,-30,-19,-6,4,7
4,-10,4,18,9,19,16,2,7
23,1,-25,-30,-18,-22,-16,6,7
-38,3,4,10,11,7,15,1,7
-11,8,-8,2,6,0,-20,-10,7
28,12,33,7,-6,-18,-27,6,7
-9,-14,-87,-26,7,23,35,-3,7
-6,-5,21,24,-8,-21,-22,-10,7
-28,-35,-66,8,4,7,-8,-17,7
0,9,53,16,2,-28,-39,-9,7
19,24,4,24,4,10,-3,11,7
-49,-49,-23,-29,-14,-7,-25,-32,7
34,55,37,-7,2,8,24,21,7
13,-8,-25,10,6,7,20,16,7
19,13,6,5,14,10,20,18,7
-35,-28,1,-16,-30,-24,-55,-35,7
16,-7,-48,1,2,-31,-16,5,7
-30,-28,1,-4,1,9,1,14,7
8,10,47,31,6,5,-10,-22,7
25,43,-24,-14,5,3,2,4,7
-11,-11,-26,-12,-2,10,-26,-16,7
14,29,34,-7,-9,4,37,8,7
-23,-43,-29,12,-6,-30,-49,-6,7
22,20,-2,-4,-1,6,-13,-9,7
-21,20,-2,15,0,3,18,7,7
-10,-27,-2,-20,0,-1,1,-7,7
-8,9,-46,-12,-1,5,-6,2,7
17,2,-2,29,16,9,20,3,7
-5,-18,1,-29,-17,-6,3,3,7
-2,-9,-39,-21,-8,3,2,-2,7
1,-6,13,37,5,4,5,3,7
-19,-6,19,-2,-1,3,-1,-13,7
2,-18,-23,9,11,19,36,10,7
2,12,-16,-1,-7,-57,-84,-26,7
-4,-17,7,17,12,30,62,18,7
19,-15,12,-26,-7,-36,-55,-19,7
3,36,-79,-25,-2,10,19,8,7
7,-4,16,34,11,17,32,5,7
1,-11,-6,-12,-9,2,1,-2,7
-20,1,-3,35,8,-5,-8,-1,7
11,-27,-7,-21,11,-4,1,30,7
1,31,13,-23,-40,-6,-30,-39,7
-6,0,-48,-16,3,-6,-7,4,7
1,8,-35,-9,8,23,25,2,7
17,-14,77,54,15,-4,28,13,7
9,3,-65,5,20,16,2,20,7
-16,16,36,-5,-17,-19,-30,-20,7
-5,7,9,-26,-14,3,11,-1,7
-11,-16,4,4,-4,-3,28,10,7
-1,-6,-52,6,2,-4,-31,-6,7
-4,-29,-50,-28,-7,1,0,-7,7
8,33,27,4,7,1,-8,-9,7
8,8,-19,11,-4,5,9,16,7
-30,2,98,20,29,17,55,-8,7
-11,-17,-74,-64,-34,-8,-32,-11,7
-1,-30,-83,26,8,-2,1,20,7
17,57,31,-3,14,-2,-25,-27,7
3,-5,-45,5,-3,4,31,17,7
6,-5,44,36,29,11,25,4,7
0,11,52,-3,-20,-13,-41,-22,7
-24,-5,-25,10,12,33,45,2,7
0,-5,-22,-18,-12,-57,-85,-6,7
16,2,-3,-16,-8,9,63,24,7
0,-4,-16,26,9,2,-17,-6,7
-19,-23,-3,-44,-32,-17,-42,-11,7
17,29,63,13,10,14,35,6,7
-7,5,23,11,-4,-3,-13,2,7
19,6,0,-1,11,8,12,3,7
-32,-16,-1,5,-2,-2,-12,-15,7
-10,-41,-30,-14,-7,11,16,4,7
10,16,0,3,13,-4,-17,-3,7
-1,-7,-9,9,9,9,28,10,7
4,5,31,-24,-32,-18,-27,-9,7
37,-8,-45,10,12,24,47,31,7
-41,-1,1,2,5,-17,-44,-23,7
12,-1,-28,-20,-5,8,26,0,7
-7,-13,3,9,8,15,11,7,7
6,4,-10,14,-6,-50,-66,-7,7
11,6,18,-6,-12,-3,-7,-10,7
-4,8,25,-31,-17,1,24,1,7
7,-13,-31,5,-4,-7,1,3,7
0,17,76,17,11,27,29,11,7
6,1,29,28,6,-2,25,12,7
-65,1,-95,-50,-26,-15,-52,-25,7
3,2,80,13,3,1,6,-8,7
-7,1,1,-5,-2,17,29,5,7
8,2,-2,5,4,-16,-25,-1,7
11,-1,42,4,-1,12,34,11,7
-8,1,-94,-9,8,-14,-53,4,7
-15,20,20,-16,-1,14,19,-11,7
23,-21,-4,-5,1,32,29,15,7
-9,21,31,25,8,-26,-11,3,7
-4,-10,-6,3,-1,-15,-22,-2,7
-27,-14,-22,-30,-21,-5,-23,-22,7
-34,-14,57,20,8,10,5,-11,7
-1,-13,-98,-29,-1,8,11,1,7
12,3,82,19,4,-3,7,-9,7
21,16,28,13,0,-2,-10,4,7
-20,-19,-44,-17,2,-6,-15,-3,7
13,4,2,-16,-21,-1,10,14,7
5,13,47,11,9,5,22,6,7
4,-3,43,7,6,13,14,-4,7
4,0,-23,-3,-11,-18,-35,-2,7
-8,3,67,34,15,-9,-13,-11,7
18,-4,-5,10,0,3,-12,-2,7
-3,-2,-63,-10,18,17,34,1,7
8,10,17,-32,-30,-19,-6,4,7
4,-10,4,18,9,19,16,2,7
23,1,-25,-30,-18,-22,-16,6,7
-38,3,4,10,11,7,15,1,7
-11,8,-8,2,6,0,-20,-10,7
28,12,33,7,-6,-18,-27,6,7
-9,-14,-87,-26,7,23,35,-3,7
-6,-5,21,24,-8,-21,-22,-10,7
0,0,18,7,1,4,15,9,7
5,1,-12,3,7,22,28,5,7
-9,31,102,34,19,-17,-48,-10,7
9,-26,-117,-59,-44,-11,-11,5,7
6,14,57,15,9,15,-11,-16,7
-2,2,28,20,3,-6,-2,3,7
21,1,-59,-17,1,14,46,25,7
-11,6,32,6,4,-1,-19,7,7
-5,-16,-11,-1,-1,-13,2,-14,7
3,-24,-43,-33,2,1,1,1,7
-14,-9,-13,-7,-24,-13,-17,-13,7
25,20,99,38,15,-2,1,3,7
8,7,-89,-27,-16,-1,3,10,7
13,-2,13,9,20,5,13,14,7
-24,-31,14,9,-1,5,-9,-18,7
-7,14,-42,-26,-10,-23,-16,-12,7
5,6,44,18,9,13,13,2,7
6,-3,-5,-1,-6,0,0,3,7
34,6,4,7,0,-23,-24,13,7
-47,-4,-33,-17,-7,-11,-9,1,7
-6,-8,-30,-11,-4,0,-11,-35,7
-10,12,77,25,6,8,-8,-11,7
1,-6,13,37,5,4,5,3,7
-19,-6,19,-2,-1,3,-1,-13,7
2,-18,-23,9,11,19,36,10,7
2,12,-16,-1,-7,-57,-84,-26,7
-4,-17,7,17,12,30,62,18,7
19,-15,12,-26,-7,-36,-55,-19,7
3,36,-79,-25,-2,10,19,8,7
7,-4,16,34,11,17,32,5,7
1,-11,-6,-12,-9,2,1,-2,7
-20,1,-3,35,8,-5,-8,-1,7
11,-27,-7,-21,11,-4,1,30,7
1,31,13,-23,-40,-6,-30,-39,7
-6,0,-48,-16,3,-6,-7,4,7
1,8,-35,-9,8,23,25,2,7
17,-14,77,54,15,-4,28,13,7
9,3,-65,5,20,16,2,20,7
-16,16,36,-5,-17,-19,-30,-20,7
-5,7,9,-26,-14,3,11,-1,7
-11,-16,4,4,-4,-3,28,10,7
-1,-6,-52,6,2,-4,-31,-6,7
-4,-29,-50,-28,-7,1,0,-7,7
8,33,27,4,7,1,-8,-9,7
8,8,-19,11,-4,5,9,16,7
-30,2,98,20,29,17,55,-8,7
-11,-17,-74,-64,-34,-8,-32,-11,7
-1,-30,-83,26,8,-2,1,20,7
17,57,31,-3,14,-2,-25,-27,7
3,-5,-45,5,-3,4,31,17,7
6,-5,44,36,29,11,25,4,7
0,11,52,-3,-20,-13,-41,-22,7
-24,-5,-25,10,12,33,45,2,7
0,-5,-22,-18,-12,-57,-85,-6,7
16,2,-3,-16,-8,9,63,24,7
0,-4,-16,26,9,2,-17,-6,7
-19,-23,-3,-44,-32,-17,-42,-11,7
17,29,63,13,10,14,35,6,7
-7,5,23,11,-4,-3,-13,2,7
19,6,0,-1,11,8,12,3,7
-32,-16,-1,5,-2,-2,-12,-15,7
-10,-41,-30,-14,-7,11,16,4,7
10,16,0,3,13,-4,-17,-3,7
-1,-7,-9,9,9,9,28,10,7
4,5,31,-24,-32,-18,-27,-9,7
37,-8,-45,10,12,24,47,31,7
-41,-1,1,2,5,-17,-44,-23,7
12,-1,-28,-20,-5,8,26,0,7
-7,-13,3,9,8,15,11,7,7
6,4,-10,14,-6,-50,-66,-7,7
11,6,18,-6,-12,-3,-7,-10,7
-4,8,25,-31,-17,1,24,1,7
7,-13,-31,5,-4,-7,1,3,7
0,17,76,17,11,27,29,11,7
6,1,29,28,6,-2,25,12,7
-65,1,-95,-50,-26,-15,-52,-25,7
3,2,80,13,3,1,6,-8,7
-7,1,1,-5,-2,17,29,5,7
8,2,-2,5,4,-16,-25,-1,7
11,-1,42,4,-1,12,34,11,7
-8,1,-94,-9,8,-14,-53,4,7
-15,20,20,-16,-1,14,19,-11,7
23,-21,-4,-5,1,32,29,15,7
-9,21,31,25,8,-26,-11,3,7
-4,-10,-6,3,-1,-15,-22,-2,7
-27,-14,-22,-30,-21,-5,-23,-22,7
-34,-14,57,20,8,10,5,-11,7
-1,-13,-98,-29,-1,8,11,1,7
12,3,82,19,4,-3,7,-9,7
21,16,28,13,0,-2,-10,4,7
-20,-19,-44,-17,2,-6,-15,-3,7
13,4,2,-16,-21,-1,10,14,7
5,13,47,11,9,5,22,6,7
4,-3,43,7,6,13,14,-4,7
4,0,-23,-3,-11,-18,-35,-2,7
-8,3,67,34,15,-9,-13,-11,7
18,-4,-5,10,0,3,-12,-2,7
-3,-2,-63,-10,18,17,34,1,7
8,10,17,-32,-30,-19,-6,4,7
4,-10,4,18,9,19,16,2,7
23,1,-25,-30,-18,-22,-16,6,7
-38,3,4,10,11,7,15,1,7
-11,8,-8,2,6,0,-20,-10,7
28,12,33,7,-6,-18,-27,6,7
-9,-14,-87,-26,7,23,35,-3,7
-6,-5,21,24,-8,-21,-22,-10,7
0,0,18,7,1,4,15,9,7
5,1,-12,3,7,22,28,5,7
-9,31,102,34,19,-17,-48,-10,7
9,-26,-117,-59,-44,-11,-11,5,7
6,14,57,15,9,15,-11,-16,7
-2,2,28,20,3,-6,-2,3,7
21,1,-59,-17,1,14,46,25,7
-11,6,32,6,4,-1,-19,7,7
-5,-16,-11,-1,-1,-13,2,-14,7
3,-24,-43,-33,2,1,1,1,7
-14,-9,-13,-7,-24,-13,-17,-13,7
25,20,99,38,15,-2,1,3,7
8,7,-89,-27,-16,-1,3,10,7
13,-2,13,9,20,5,13,14,7
-24,-31,14,9,-1,5,-9,-18,7
-7,14,-42,-26,-10,-23,-16,-12,7
5,6,44,18,9,13,13,2,7
6,-3,-5,-1,-6,0,0,3,7
34,6,4,7,0,-23,-24,13,7
-47,-4,-33,-17,-7,-11,-9,1,7
-6,-8,-30,-11,-4,0,-11,-35,7
-10,12,77,25,6,8,-8,-11,7
-6,-6,-9,-14,-5,-1,4,3,7
43,-3,-29,-2,7,17,22,15,7
-1,-21,0,29,11,2,12,14,7
4,16,-61,-47,-11,8,7,-14,7
-1,-31,29,22,0,-3,-39,-5,7
14,27,4,-10,0,5,20,6,7
-1,4,9,5,6,4,33,21,7
6,-18,19,7,-2,-4,-37,-26,7
-19,24,13,-3,2,13,44,7,7
16,-23,-49,-24,-15,0,-2,11,7
-26,13,79,6,5,5,-13,-26,7
5,-4,-35,10,5,-2,7,12,7
28,13,-9,-10,-3,2,27,19,7
-65,-21,47,5,6,-2,-23,-22,7
4,-8,-96,-41,-14,-1,-17,-30,7
-1,21,51,0,-3,-11,18,12,7
-11,-6,-13,15,-1,-22,-59,-26,7
31,9,8,12,7,24,54,24,7
5,-3,0,12,-6,-53,-65,1,7
-39,-13,-8,-41,-8,-3,-5,-19,7
1,-10,-12,-5,-7,8,32,10,7
15,2,36,17,8,3,-10,-7,7
-4,-29,-50,-28,-7,1,0,-7,7
8,33,27,4,7,1,-8,-9,7
8,8,-19,11,-4,5,9,16,7
-30,2,98,20,29,17,55,-8,7
-11,-17,-74,-64,-34,-8,-32,-11,7
-1,-30,-83,26,8,-2,1,20,7
17,57,31,-3,14,-2,-25,-27,7
3,-5,-45,5,-3,4,31,17,7
6,-5,44,36,29,11,25,4,7
0,11,52,-3,-20,-13,-41,-22,7
-24,-5,-25,10,12,33,45,2,7
0,-5,-22,-18,-12,-57,-85,-6,7
16,2,-3,-16,-8,9,63,24,7
0,-4,-16,26,9,2,-17,-6,7
-19,-23,-3,-44,-32,-17,-42,-11,7
17,29,63,13,10,14,35,6,7
-7,5,23,11,-4,-3,-13,2,7
19,6,0,-1,11,8,12,3,7
-32,-16,-1,5,-2,-2,-12,-15,7
-10,-41,-30,-14,-7,11,16,4,7
10,16,0,3,13,-4,-17,-3,7
-1,-7,-9,9,9,9,28,10,7
4,5,31,-24,-32,-18,-27,-9,7
37,-8,-45,10,12,24,47,31,7
-41,-1,1,2,5,-17,-44,-23,7
12,-1,-28,-20,-5,8,26,0,7
-7,-13,3,9,8,15,11,7,7
6,4,-10,14,-6,-50,-66,-7,7
11,6,18,-6,-12,-3,-7,-10,7
-4,8,25,-31,-17,1,24,1,7
7,-13,-31,5,-4,-7,1,3,7
0,17,76,17,11,27,29,11,7
6,1,29,28,6,-2,25,12,7
-65,1,-95,-50,-26,-15,-52,-25,7
3,2,80,13,3,1,6,-8,7
-7,1,1,-5,-2,17,29,5,7
8,2,-2,5,4,-16,-25,-1,7
11,-1,42,4,-1,12,34,11,7
-8,1,-94,-9,8,-14,-53,4,7
-15,20,20,-16,-1,14,19,-11,7
23,-21,-4,-5,1,32,29,15,7
-9,21,31,25,8,-26,-11,3,7
-4,-10,-6,3,-1,-15,-22,-2,7
-27,-14,-22,-30,-21,-5,-23,-22,7
-34,-14,57,20,8,10,5,-11,7
-1,-13,-98,-29,-1,8,11,1,7
12,3,82,19,4,-3,7,-9,7
21,16,28,13,0,-2,-10,4,7
-20,-19,-44,-17,2,-6,-15,-3,7
13,4,2,-16,-21,-1,10,14,7
5,13,47,11,9,5,22,6,7
4,-3,43,7,6,13,14,-4,7
4,0,-23,-3,-11,-18,-35,-2,7
-8,3,67,34,15,-9,-13,-11,7
18,-4,-5,10,0,3,-12,-2,7
-3,-2,-63,-10,18,17,34,1,7
8,10,17,-32,-30,-19,-6,4,7
4,-10,4,18,9,19,16,2,7
23,1,-25,-30,-18,-22,-16,6,7
-38,3,4,10,11,7,15,1,7
-11,8,-8,2,6,0,-20,-10,7
28,12,33,7,-6,-18,-27,6,7
-9,-14,-87,-26,7,23,35,-3,7
-6,-5,21,24,-8,-21,-22,-10,7
0,0,18,7,1,4,15,9,7
5,1,-12,3,7,22,28,5,7
-9,31,102,34,19,-17,-48,-10,7
9,-26,-117,-59,-44,-11,-11,5,7
6,14,57,15,9,15,-11,-16,7
-2,2,28,20,3,-6,-2,3,7
21,1,-59,-17,1,14,46,25,7
-11,6,32,6,4,-1,-19,7,7
-5,-16,-11,-1,-1,-13,2,-14,7
3,-24,-43,-33,2,1,1,1,7
-14,-9,-13,-7,-24,-13,-17,-13,7
25,20,99,38,15,-2,1,3,7
8,7,-89,-27,-16,-1,3,10,7
13,-2,13,9,20,5,13,14,7
-24,-31,14,9,-1,5,-9,-18,7
-7,14,-42,-26,-10,-23,-16,-12,7
5,6,44,18,9,13,13,2,7
6,-3,-5,-1,-6,0,0,3,7
34,6,4,7,0,-23,-24,13,7
-47,-4,-33,-17,-7,-11,-9,1,7
-6,-8,-30,-11,-4,0,-11,-35,7
-10,12,77,25,6,8,-8,-11,7
-6,-6,-9,-14,-5,-1,4,3,7
43,-3,-29,-2,7,17,22,15,7
-1,-21,0,29,11,2,12,14,7
4,16,-61,-47,-11,8,7,-14,7
-1,-31,29,22,0,-3,-39,-5,7
14,27,4,-10,0,5,20,6,7
-1,4,9,5,6,4,33,21,7
6,-18,19,7,-2,-4,-37,-26,7
-19,24,13,-3,2,13,44,7,7
16,-23,-49,-24,-15,0,-2,11,7
-26,13,79,6,5,5,-13,-26,7
5,-4,-35,10,5,-2,7,12,7
28,13,-9,-10,-3,2,27,19,7
-65,-21,47,5,6,-2,-23,-22,7
4,-8,-96,-41,-14,-1,-17,-30,7
-1,21,51,0,-3,-11,18,12,7
-11,-6,-13,15,-1,-22,-59,-26,7
31,9,8,12,7,24,54,24,7
5,-3,0,12,-6,-53,-65,1,7
-39,-13,-8,-41,-8,-3,-5,-19,7
1,-10,-12,-5,-7,8,32,10,7
15,2,36,17,8,3,-10,-7,7
4,8,19,-3,-5,7,16,11,7
41,11,32,70,18,17,17,13,7
8,9,-47,-50,-11,-42,-61,1,7
-5,-8,8,-19,-8,2,2,-7,7
-5,-28,-59,-1,12,26,29,-5,7
-11,-11,-23,2,2,-5,-1,0,7
2,23,69,20,2,-12,-35,-8,7
20,-3,-3,22,-11,-6,-5,5,7
12,17,8,-20,-2,3,2,13,7
-5,-28,-101,-35,-18,2,21,8,7
14,23,39,24,19,16,-8,-6,7
-3,18,19,8,9,2,19,16,7
-1,-13,15,23,2,-2,-17,-8,7
-2,-3,-35,-21,3,7,14,0,7
-35,9,-8,-11,-19,-18,-21,-17,7
1,-17,-44,15,3,0,3,6,7
41,19,-55,-4,1,9,28,34,7
-12,5,72,2,-3,-4,-7,-5,7
1,-18,4,-7,2,17,37,-19,7
2,0,28,24,6,-6,-42,-30,7
10,16,0,3,13,-4,-17,-3,7
-1,-7,-9,9,9,9,28,10,7
4,5,31,-24,-32,-18,-27,-9,7
37,-8,-45,10,12,24,47,31,7
-41,-1,1,2,5,-17,-44,-23,7
12,-1,-28,-20,-5,8,26,0,7
-7,-13,3,9,8,15,11,7,7
6,4,-10,14,-6,-50,-66,-7,7
11,6,18,-6,-12,-3,-7,-10,7
-4,8,25,-31,-17,1,24,1,7
7,-13,-31,5,-4,-7,1,3,7
0,17,76,17,11,27,29,11,7
6,1,29,28,6,-2,25,12,7
-65,1,-95,-50,-26,-15,-52,-25,7
3,2,80,13,3,1,6,-8,7
-7,1,1,-5,-2,17,29,5,7
8,2,-2,5,4,-16,-25,-1,7
11,-1,42,4,-1,12,34,11,7
-8,1,-94,-9,8,-14,-53,4,7
-15,20,20,-16,-1,14,19,-11,7
23,-21,-4,-5,1,32,29,15,7
-9,21,31,25,8,-26,-11,3,7
-4,-10,-6,3,-1,-15,-22,-2,7
-27,-14,-22,-30,-21,-5,-23,-22,7
-34,-14,57,20,8,10,5,-11,7
-1,-13,-98,-29,-1,8,11,1,7
12,3,82,19,4,-3,7,-9,7
21,16,28,13,0,-2,-10,4,7
-20,-19,-44,-17,2,-6,-15,-3,7
13,4,2,-16,-21,-1,10,14,7
5,13,47,11,9,5,22,6,7
4,-3,43,7,6,13,14,-4,7
4,0,-23,-3,-11,-18,-35,-2,7
-8,3,67,34,15,-9,-13,-11,7
18,-4,-5,10,0,3,-12,-2,7
-3,-2,-63,-10,18,17,34,1,7
8,10,17,-32,-30,-19,-6,4,7
4,-10,4,18,9,19,16,2,7
23,1,-25,-30,-18,-22,-16,6,7
-38,3,4,10,11,7,15,1,7
-11,8,-8,2,6,0,-20,-10,7
28,12,33,7,-6,-18,-27,6,7
-9,-14,-87,-26,7,23,35,-3,7
-6,-5,21,24,-8,-21,-22,-10,7
0,0,18,7,1,4,15,9,7
5,1,-12,3,7,22,28,5,7
-9,31,102,34,19,-17,-48,-10,7
9,-26,-117,-59,-44,-11,-11,5,7
6,14,57,15,9,15,-11,-16,7
-2,2,28,20,3,-6,-2,3,7
21,1,-59,-17,1,14,46,25,7
-11,6,32,6,4,-1,-19,7,7
-5,-16,-11,-1,-1,-13,2,-14,7
3,-24,-43,-33,2,1,1,1,7
-14,-9,-13,-7,-24,-13,-17,-13,7
25,20,99,38,15,-2,1,3,7
8,7,-89,-27,-16,-1,3,10,7
13,-2,13,9,20,5,13,14,7
-24,-31,14,9,-1,5,-9,-18,7
-7,14,-42,-26,-10,-23,-16,-12,7
5,6,44,18,9,13,13,2,7
6,-3,-5,-1,-6,0,0,3,7
34,6,4,7,0,-23,-24,13,7
-47,-4,-33,-17,-7,-11,-9,1,7
-6,-8,-30,-11,-4,0,-11,-35,7
-10,12,77,25,6,8,-8,-11,7
-6,-6,-9,-14,-5,-1,4,3,7
43,-3,-29,-2,7,17,22,15,7
-1,-21,0,29,11,2,12,14,7
4,16,-61,-47,-11,8,7,-14,7
-1,-31,29,22,0,-3,-39,-5,7
14,27,4,-10,0,5,20,6,7
-1,4,9,5,6,4,33,21,7
6,-18,19,7,-2,-4,-37,-26,7
-19,24,13,-3,2,13,44,7,7
16,-23,-49,-24,-15,0,-2,11,7
-26,13,79,6,5,5,-13,-26,7
5,-4,-35,10,5,-2,7,12,7
28,13,-9,-10,-3,2,27,19,7
-65,-21,47,5,6,-2,-23,-22,7
4,-8,-96,-41,-14,-1,-17,-30,7
-1,21,51,0,-3,-11,18,12,7
-11,-6,-13,15,-1,-22,-59,-26,7
31,9,8,12,7,24,54,24,7
5,-3,0,12,-6,-53,-65,1,7
-39,-13,-8,-41,-8,-3,-5,-19,7
1,-10,-12,-5,-7,8,32,10,7
15,2,36,17,8,3,-10,-7,7
4,8,19,-3,-5,7,16,11,7
41,11,32,70,18,17,17,13,7
8,9,-47,-50,-11,-42,-61,1,7
-5,-8,8,-19,-8,2,2,-7,7
-5,-28,-59,-1,12,26,29,-5,7
-11,-11,-23,2,2,-5,-1,0,7
2,23,69,20,2,-12,-35,-8,7
20,-3,-3,22,-11,-6,-5,5,7
12,17,8,-20,-2,3,2,13,7
-5,-28,-101,-35,-18,2,21,8,7
14,23,39,24,19,16,-8,-6,7
-3,18,19,8,9,2,19,16,7
-1,-13,15,23,2,-2,-17,-8,7
-2,-3,-35,-21,3,7,14,0,7
-35,9,-8,-11,-19,-18,-21,-17,7
1,-17,-44,15,3,0,3,6,7
41,19,-55,-4,1,9,28,34,7
-12,5,72,2,-3,-4,-7,-5,7
1,-18,4,-7,2,17,37,-19,7
2,0,28,24,6,-6,-42,-30,7
1,4,14,8,8,-5,0,20,7
-34,-29,-56,-39,-9,-9,-18,-13,7
5,-4,21,5,-12,21,66,21,7
-10,11,-46,-16,-2,-7,-24,-22,7
16,-5,30,10,2,-12,-10,17,7
15,26,9,17,10,4,18,9,7
-19,0,11,8,1,3,-26,-7,7
-24,-31,1,-23,-7,8,12,-14,7
24,9,49,11,3,-15,-9,5,7
3,1,11,6,3,-2,-25,-7,7
-2,-17,-42,-13,1,8,21,7,7
19,12,14,-32,-20,13,26,14,7
2,16,12,25,3,-5,-4,-7,7
-58,-24,11,12,5,-4,15,1,7
-17,-6,-51,23,12,7,3,-2,7
-8,12,-44,-26,0,-10,0,9,7
-23,-20,44,16,9,15,-10,-12,7
-39,5,-6,29,6,5,-14,-44,7
3,-8,-39,-29,-19,-13,3,7,7
28,19,39,41,21,10,22,13,7
23,-21,-4,-5,1,32,29,15,7
-9,21,31,25,8,-26,-11,3,7
-4,-10,-6,3,-1,-15,-22,-2,7
-27,-14,-22,-30,-21,-5,-23,-22,7
-34,-14,57,20,8,10,5,-11,7
-1,-13,-98,-29,-1,8,11,1,7
12,3,82,19,4,-3,7,-9,7
21,16,28,13,0,-2,-10,4,7
-20,-19,-44,-17,2,-6,-15,-3,7
13,4,2,-16,-21,-1,10,14,7
5,13,47,11,9,5,22,6,7
4,-3,43,7,6,13,14,-4,7
4,0,-23,-3,-11,-18,-35,-2,7
-8,3,67,34,15,-9,-13,-11,7
18,-4,-5,10,0,3,-12,-2,7
-3,-2,-63,-10,18,17,34,1,7
8,10,17,-32,-30,-19,-6,4,7
4,-10,4,18,9,19,16,2,7
23,1,-25,-30,-18,-22,-16,6,7
-38,3,4,10,11,7,15,1,7
-11,8,-8,2,6,0,-20,-10,7
28,12,33,7,-6,-18,-27,6,7
-9,-14,-87,-26,7,23,35,-3,7
-6,-5,21,24,-8,-21,-22,-10,7
0,0,18,7,1,4,15,9,7
5,1,-12,3,7,22,28,5,7
-9,31,102,34,19,-17,-48,-10,7
9,-26,-117,-59,-44,-11,-11,5,7
6,14,57,15,9,15,-11,-16,7
-2,2,28,20,3,-6,-2,3,7
21,1,-59,-17,1,14,46,25,7
-11,6,32,6,4,-1,-19,7,7
-5,-16,-11,-1,-1,-13,2,-14,7
3,-24,-43,-33,2,1,1,1,7
-14,-9,-13,-7,-24,-13,-17,-13,7
25,20,99,38,15,-2,1,3,7
8,7,-89,-27,-16,-1,3,10,7
13,-2,13,9,20,5,13,14,7
-24,-31,14,9,-1,5,-9,-18,7
-7,14,-42,-26,-10,-23,-16,-12,7
5,6,44,18,9,13,13,2,7
6,-3,-5,-1,-6,0,0,3,7
34,6,4,7,0,-23,-24,13,7
-47,-4,-33,-17,-7,-11,-9,1,7
-6,-8,-30,-11,-4,0,-11,-35,7
-10,12,77,25,6,8,-8,-11,7
-6,-6,-9,-14,-5,-1,4,3,7
43,-3,-29,-2,7,17,22,15,7
-1,-21,0,29,11,2,12,14,7
4,16,-61,-47,-11,8,7,-14,7
-1,-31,29,22,0,-3,-39,-5,7
14,27,4,-10,0,5,20,6,7
-1,4,9,5,6,4,33,21,7
6,-18,19,7,-2,-4,-37,-26,7
-19,24,13,-3,2,13,44,7,7
16,-23,-49,-24,-15,0,-2,11,7
-26,13,79,6,5,5,-13,-26,7
5,-4,-35,10,5,-2,7,12,7
28,13,-9,-10,-3,2,27,19,7
-65,-21,47,5,6,-2,-23,-22,7
4,-8,-96,-41,-14,-1,-17,-30,7
-1,21,51,0,-3,-11,18,12,7
-11,-6,-13,15,-1,-22,-59,-26,7
31,9,8,12,7,24,54,24,7
5,-3,0,12,-6,-53,-65,1,7
-39,-13,-8,-41,-8,-3,-5,-19,7
1,-10,-12,-5,-7,8,32,10,7
15,2,36,17,8,3,-10,-7,7
4,8,19,-3,-5,7,16,11,7
41,11,32,70,18,17,17,13,7
8,9,-47,-50,-11,-42,-61,1,7
-5,-8,8,-19,-8,2,2,-7,7
-5,-28,-59,-1,12,26,29,-5,7
-11,-11,-23,2,2,-5,-1,0,7
2,23,69,20,2,-12,-35,-8,7
20,-3,-3,22,-11,-6,-5,5,7
12,17,8,-20,-2,3,2,13,7
-5,-28,-101,-35,-18,2,21,8,7
14,23,39,24,19,16,-8,-6,7
-3,18,19,8,9,2,19,16,7
-1,-13,15,23,2,-2,-17,-8,7
-2,-3,-35,-21,3,7,14,0,7
-35,9,-8,-11,-19,-18,-21,-17,7
1,-17,-44,15,3,0,3,6,7
41,19,-55,-4,1,9,28,34,7
-12,5,72,2,-3,-4,-7,-5,7
1,-18,4,-7,2,17,37,-19,7
2,0,28,24,6,-6,-42,-30,7
1,4,14,8,8,-5,0,20,7
-34,-29,-56,-39,-9,-9,-18,-13,7
5,-4,21,5,-12,21,66,21,7
-10,11,-46,-16,-2,-7,-24,-22,7
16,-5,30,10,2,-12,-10,17,7
15,26,9,17,10,4,18,9,7
-19,0,11,8,1,3,-26,-7,7
-24,-31,1,-23,-7,8,12,-14,7
24,9,49,11,3,-15,-9,5,7
3,1,11,6,3,-2,-25,-7,7
-2,-17,-42,-13,1,8,21,7,7
19,12,14,-32,-20,13,26,14,7
2,16,12,25,3,-5,-4,-7,7
-58,-24,11,12,5,-4,15,1,7
-17,-6,-51,23,12,7,3,-2,7
-8,12,-44,-26,0,-10,0,9,7
-23,-20,44,16,9,15,-10,-12,7
-39,5,-6,29,6,5,-14,-44,7
3,-8,-39,-29,-19,-13,3,7,7
28,19,39,41,21,10,22,13,7
12,16,15,-16,-6,12,40,24,7
4,-15,15,-1,-12,-33,-48,6,7
13,5,-14,-3,7,6,-2,-8,7
5,3,-27,-10,2,5,-3,4,7
-14,4,-11,-8,-9,-1,7,-10,7
15,2,-39,-9,-1,18,20,12,7
12,13,40,11,-1,-20,-17,4,7
20,-21,-47,-36,-10,-4,-9,-8,7
-74,-25,16,4,-3,8,2,-31,7
4,-15,-44,-10,-11,-22,-16,-5,7
45,9,0,6,11,1,1,23,7
-6,-2,31,31,17,1,7,-11,7
-7,-3,-54,-54,-22,-7,-16,-22,7
37,26,90,64,18,20,23,23,7
-14,-13,35,7,-5,-2,-4,-2,7
-3,10,-38,-9,-12,-35,-45,-13,7
16,-4,-40,-18,-3,-6,-25,-7,7
-13,12,-39,-30,5,7,13,5,7
-8,-3,-18,18,10,7,7,2,7
-9,-25,-21,-25,-34,-11,7,-2,7
-11,8,-8,2,6,0,-20,-10,7
28,12,33,7,-6,-18,-27,6,7
-9,-14,-87,-26,7,23,35,-3,7
-6,-5,21,24,-8,-21,-22,-10,7
0,0,18,7,1,4,15,9,7
5,1,-12,3,7,22,28,5,7
-9,31,102,34,19,-17,-48,-10,7
9,-26,-117,-59,-44,-11,-11,5,7
6,14,57,15,9,15,-11,-16,7
-2,2,28,20,3,-6,-2,3,7
21,1,-59,-17,1,14,46,25,7
-11,6,32,6,4,-1,-19,7,7
-5,-16,-11,-1,-1,-13,2,-14,7
3,-24,-43,-33,2,1,1,1,7
-14,-9,-13,-7,-24,-13,-17,-13,7
25,20,99,38,15,-2,1,3,7
8,7,-89,-27,-16,-1,3,10,7
13,-2,13,9,20,5,13,14,7
-24,-31,14,9,-1,5,-9,-18,7
-7,14,-42,-26,-10,-23,-16,-12,7
5,6,44,18,9,13,13,2,7
6,-3,-5,-1,-6,0,0,3,7
34,6,4,7,0,-23,-24,13,7
-47,-4,-33,-17,-7,-11,-9,1,7
-6,-8,-30,-11,-4,0,-11,-35,7
-10,12,77,25,6,8,-8,-11,7
-6,-6,-9,-14,-5,-1,4,3,7
43,-3,-29,-2,7,17,22,15,7
-1,-21,0,29,11,2,12,14,7
4,16,-61,-47,-11,8,7,-14,7
-1,-31,29,22,0,-3,-39,-5,7
14,27,4,-10,0,5,20,6,7
-1,4,9,5,6,4,33,21,7
6,-18,19,7,-2,-4,-37,-26,7
-19,24,13,-3,2,13,44,7,7
16,-23,-49,-24,-15,0,-2,11,7
-26,13,79,6,5,5,-13,-26,7
5,-4,-35,10,5,-2,7,12,7
28,13,-9,-10,-3,2,27,19,7
-65,-21,47,5,6,-2,-23,-22,7
4,-8,-96,-41,-14,-1,-17,-30,7
-1,21,51,0,-3,-11,18,12,7
-11,-6,-13,15,-1,-22,-59,-26,7
31,9,8,12,7,24,54,24,7
5,-3,0,12,-6,-53,-65,1,7
-39,-13,-8,-41,-8,-3,-5,-19,7
1,-10,-12,-5,-7,8,32,10,7
15,2,36,17,8,3,-10,-7,7
4,8,19,-3,-5,7,16,11,7
41,11,32,70,18,17,17,13,7
8,9,-47,-50,-11,-42,-61,1,7
-5,-8,8,-19,-8,2,2,-7,7
-5,-28,-59,-1,12,26,29,-5,7
-11,-11,-23,2,2,-5,-1,0,7
2,23,69,20,2,-12,-35,-8,7
20,-3,-3,22,-11,-6,-5,5,7
12,17,8,-20,-2,3,2,13,7
-5,-28,-101,-35,-18,2,21,8,7
14,23,39,24,19,16,-8,-6,7
-3,18,19,8,9,2,19,16,7
-1,-13,15,23,2,-2,-17,-8,7
-2,-3,-35,-21,3,7,14,0,7
-35,9,-8,-11,-19,-18,-21,-17,7
1,-17,-44,15,3,0,3,6,7
41,19,-55,-4,1,9,28,34,7
-12,5,72,2,-3,-4,-7,-5,7
1,-18,4,-7,2,17,37,-19,7
2,0,28,24,6,-6,-42,-30,7
1,4,14,8,8,-5,0,20,7
-34,-29,-56,-39,-9,-9,-18,-13,7
5,-4,21,5,-12,21,66,21,7
-10,11,-46,-16,-2,-7,-24,-22,7
16,-5,30,10,2,-12,-10,17,7
15,26,9,17,10,4,18,9,7
-19,0,11,8,1,3,-26,-7,7
-24,-31,1,-23,-7,8,12,-14,7
24,9,49,11,3,-15,-9,5,7
3,1,11,6,3,-2,-25,-7,7
-2,-17,-42,-13,1,8,21,7,7
19,12,14,-32,-20,13,26,14,7
2,16,12,25,3,-5,-4,-7,7
-58,-24,11,12,5,-4,15,1,7
-17,-6,-51,23,12,7,3,-2,7
-8,12,-44,-26,0,-10,0,9,7
-23,-20,44,16,9,15,-10,-12,7
-39,5,-6,29,6,5,-14,-44,7
3,-8,-39,-29,-19,-13,3,7,7
28,19,39,41,21,10,22,13,7
12,16,15,-16,-6,12,40,24,7
4,-15,15,-1,-12,-33,-48,6,7
13,5,-14,-3,7,6,-2,-8,7
5,3,-27,-10,2,5,-3,4,7
-14,4,-11,-8,-9,-1,7,-10,7
15,2,-39,-9,-1,18,20,12,7
12,13,40,11,-1,-20,-17,4,7
20,-21,-47,-36,-10,-4,-9,-8,7
-74,-25,16,4,-3,8,2,-31,7
4,-15,-44,-10,-11,-22,-16,-5,7
45,9,0,6,11,1,1,23,7
-6,-2,31,31,17,1,7,-11,7
-7,-3,-54,-54,-22,-7,-16,-22,7
37,26,90,64,18,20,23,23,7
-14,-13,35,7,-5,-2,-4,-2,7
-3,10,-38,-9,-12,-35,-45,-13,7
16,-4,-40,-18,-3,-6,-25,-7,7
-13,12,-39,-30,5,7,13,5,7
-8,-3,-18,18,10,7,7,2,7
-9,-25,-21,-25,-34,-11,7,-2,7
-38,15,58,31,7,-6,-22,-8,7
21,2,16,5,-6,2,3,10,7
-10,-15,-22,-20,1,-3,11,-5,7
-6,-8,-36,-10,0,14,-5,-7,7
0,1,17,4,3,9,30,4,7
16,-2,-31,-7,1,0,2,-10,7
-16,-5,-28,-27,-20,2,-3,0,7
-2,8,56,13,4,-11,-13,6,7
10,-6,-43,1,0,3,7,7,7
18,23,41,13,4,9,33,4,7
-19,-10,-20,-19,-6,-10,-43,-16,7
-1,4,52,29,14,12,16,11,7
-4,-9,-33,-11,-11,-5,6,1,7
12,-13,11,-9,-9,-11,-18,4,7
-2,22,9,23,12,13,26,-8,7
-2,-15,-10,-23,-4,0,-5,4,7
13,6,54,3,-5,2,10,6,7
-4,-5,-47,-24,-3,-2,-3,9,7
-5,-8,14,7,-1,-4,-13,-19,7
-30,3,45,40,14,9,16,3,7
34,6,4,7,0,-23,-24,13,7
-47,-4,-33,-17,-7,-11,-9,1,7
-6,-8,-30,-11,-4,0,-11,-35,7
-10,12,77,25,6,8,-8,-11,7
-6,-6,-9,-14,-5,-1,4,3,7
43,-3,-29,-2,7,17,22,15,7
-1,-21,0,29,11,2,12,14,7
4,16,-61,-47,-11,8,7,-14,7
-1,-31,29,22,0,-3,-39,-5,7
14,27,4,-10,0,5,20,6,7
-1,4,9,5,6,4,33,21,7
6,-18,19,7,-2,-4,-37,-26,7
-19,24,13,-3,2,13,44,7,7
16,-23,-49,-24,-15,0,-2,11,7
-26,13,79,6,5,5,-13,-26,7
5,-4,-35,10,5,-2,7,12,7
28,13,-9,-10,-3,2,27,19,7
-65,-21,47,5,6,-2,-23,-22,7
4,-8,-96,-41,-14,-1,-17,-30,7
-1,21,51,0,-3,-11,18,12,7
-11,-6,-13,15,-1,-22,-59,-26,7
31,9,8,12,7,24,54,24,7
5,-3,0,12,-6,-53,-65,1,7
-39,-13,-8,-41,-8,-3,-5,-19,7
1,-10,-12,-5,-7,8,32,10,7
15,2,36,17,8,3,-10,-7,7
4,8,19,-3,-5,7,16,11,7
41,11,32,70,18,17,17,13,7
8,9,-47,-50,-11,-42,-61,1,7
-5,-8,8,-19,-8,2,2,-7,7
-5,-28,-59,-1,12,26,29,-5,7
-11,-11,-23,2,2,-5,-1,0,7
2,23,69,20,2,-12,-35,-8,7
20,-3,-3,22,-11,-6,-5,5,7
12,17,8,-20,-2,3,2,13,7
-5,-28,-101,-35,-18,2,21,8,7
14,23,39,24,19,16,-8,-6,7
-3,18,19,8,9,2,19,16,7
-1,-13,15,23,2,-2,-17,-8,7
-2,-3,-35,-21,3,7,14,0,7
-35,9,-8,-11,-19,-18,-21,-17,7
1,-17,-44,15,3,0,3,6,7
41,19,-55,-4,1,9,28,34,7
-12,5,72,2,-3,-4,-7,-5,7
1,-18,4,-7,2,17,37,-19,7
2,0,28,24,6,-6,-42,-30,7
1,4,14,8,8,-5,0,20,7
-34,-29,-56,-39,-9,-9,-18,-13,7
5,-4,21,5,-12,21,66,21,7
-10,11,-46,-16,-2,-7,-24,-22,7
16,-5,30,10,2,-12,-10,17,7
15,26,9,17,10,4,18,9,7
-19,0,11,8,1,3,-26,-7,7
-24,-31,1,-23,-7,8,12,-14,7
24,9,49,11,3,-15,-9,5,7
3,1,11,6,3,-2,-25,-7,7
-2,-17,-42,-13,1,8,21,7,7
19,12,14,-32,-20,13,26,14,7
2,16,12,25,3,-5,-4,-7,7
-58,-24,11,12,5,-4,15,1,7
-17,-6,-51,23,12,7,3,-2,7
-8,12,-44,-26,0,-10,0,9,7
-23,-20,44,16,9,15,-10,-12,7
-39,5,-6,29,6,5,-14,-44,7
3,-8,-39,-29,-19,-13,3,7,7
28,19,39,41,21,10,22,13,7
12,16,15,-16,-6,12,40,24,7
4,-15,15,-1,-12,-33,-48,6,7
13,5,-14,-3,7,6,-2,-8,7
5,3,-27,-10,2,5,-3,4,7
-14,4,-11,-8,-9,-1,7,-10,7
15,2,-39,-9,-1,18,20,12,7
12,13,40,11,-1,-20,-17,4,7
20,-21,-47,-36,-10,-4,-9,-8,7
-74,-25,16,4,-3,8,2,-31,7
4,-15,-44,-10,-11,-22,-16,-5,7
45,9,0,6,11,1,1,23,7
-6,-2,31,31,17,1,7,-11,7
-7,-3,-54,-54,-22,-7,-16,-22,7
37,26,90,64,18,20,23,23,7
-14,-13,35,7,-5,-2,-4,-2,7
-3,10,-38,-9,-12,-35,-45,-13,7
16,-4,-40,-18,-3,-6,-25,-7,7
-13,12,-39,-30,5,7,13,5,7
-8,-3,-18,18,10,7,7,2,7
-9,-25,-21,-25,-34,-11,7,-2,7
-38,15,58,31,7,-6,-22,-8,7
21,2,16,5,-6,2,3,10,7
-10,-15,-22,-20,1,-3,11,-5,7
-6,-8,-36,-10,0,14,-5,-7,7
0,1,17,4,3,9,30,4,7
16,-2,-31,-7,1,0,2,-10,7
-16,-5,-28,-27,-20,2,-3,0,7
-2,8,56,13,4,-11,-13,6,7
10,-6,-43,1,0,3,7,7,7
18,23,41,13,4,9,33,4,7
-19,-10,-20,-19,-6,-10,-43,-16,7
-1,4,52,29,14,12,16,11,7
-4,-9,-33,-11,-11,-5,6,1,7
12,-13,11,-9,-9,-11,-18,4,7
-2,22,9,23,12,13,26,-8,7
-2,-15,-10,-23,-4,0,-5,4,7
13,6,54,3,-5,2,10,6,7
-4,-5,-47,-24,-3,-2,-3,9,7
-5,-8,14,7,-1,-4,-13,-19,7
-30,3,45,40,14,9,16,3,7
-5,-18,-77,-33,-15,-46,-75,-19,7
-58,-8,37,-9,-3,6,6,-8,7
7,19,6,4,2,7,14,12,7
15,12,-42,-14,-7,-21,-11,-13,7
10,-7,42,12,4,18,32,8,7
-23,-21,40,13,0,-23,-58,-12,7
2,6,-7,-19,-4,4,12,15,7
5,12,2,6,2,11,18,-8,7
15,7,-31,23,16,24,33,18,7
-1,-26,-28,-29,-6,-8,-24,-18,7
17,6,42,-4,2,2,18,12,7
-62,-4,-14,-19,-3,18,39,1,7
-1,22,31,18,-3,-29,-53,-5,7
9,-8,-32,5,0,-7,-7,-9,7
-10,0,-19,5,-4,-16,-36,-15,7
-30,-17,-8,-7,8,12,16,10,7
27,23,-2,-3,5,11,19,-15,7
-11,-17,-10,0,4,12,37,33,7
-4,-10,13,-8,-10,-2,-13,-33,7
-10,-4,36,27,4,-25,-38,-9,7
1,-27,24,9,9,4,12,10,7
41,55,-20,-9,-8,9,25,6,7
5,-3,0,12,-6,-53,-65,1,7
-39,-13,-8,-41,-8,-3,-5,-19,7
1,-10,-12,-5,-7,8,32,10,7
15,2,36,17,8,3,-10,-7,7
4,8,19,-3,-5,7,16,11,7
41,11,32,70,18,17,17,13,7
8,9,-47,-50,-11,-42,-61,1,7
-5,-8,8,-19,-8,2,2,-7,7
-5,-28,-59,-1,12,26,29,-5,7
-11,-11,-23,2,2,-5,-1,0,7
2,23,69,20,2,-12,-35,-8,7
20,-3,-3,22,-11,-6,-5,5,7
12,17,8,-20,-2,3,2,13,7
-5,-28,-101,-35,-18,2,21,8,7
14,23,39,24,19,16,-8,-6,7
-3,18,19,8,9,2,19,16,7
-1,-13,15,23,2,-2,-17,-8,7
-2,-3,-35,-21,3,7,14,0,7
-35,9,-8,-11,-19,-18,-21,-17,7
1,-17,-44,15,3,0,3,6,7
41,19,-55,-4,1,9,28,34,7
-12,5,72,2,-3,-4,-7,-5,7
1,-18,4,-7,2,17,37,-19,7
2,0,28,24,6,-6,-42,-30,7
1,4,14,8,8,-5,0,20,7
-34,-29,-56,-39,-9,-9,-18,-13,7
5,-4,21,5,-12,21,66,21,7
-10,11,-46,-16,-2,-7,-24,-22,7
16,-5,30,10,2,-12,-10,17,7
15,26,9,17,10,4,18,9,7
-19,0,11,8,1,3,-26,-7,7
-24,-31,1,-23,-7,8,12,-14,7
24,9,49,11,3,-15,-9,5,7
3,1,11,6,3,-2,-25,-7,7
-2,-17,-42,-13,1,8,21,7,7
19,12,14,-32,-20,13,26,14,7
2,16,12,25,3,-5,-4,-7,7
-58,-24,11,12,5,-4,15,1,7
-17,-6,-51,23,12,7,3,-2,7
-8,12,-44,-26,0,-10,0,9,7
-23,-20,44,16,9,15,-10,-12,7
-39,5,-6,29,6,5,-14,-44,7
3,-8,-39,-29,-19,-13,3,7,7
28,19,39,41,21,10,22,13,7
12,16,15,-16,-6,12,40,24,7
4,-15,15,-1,-12,-33,-48,6,7
13,5,-14,-3,7,6,-2,-8,7
5,3,-27,-10,2,5,-3,4,7
-14,4,-11,-8,-9,-1,7,-10,7
15,2,-39,-9,-1,18,20,12,7
12,13,40,11,-1,-20,-17,4,7
20,-21,-47,-36,-10,-4,-9,-8,7
-74,-25,16,4,-3,8,2,-31,7
4,-15,-44,-10,-11,-22,-16,-5,7
45,9,0,6,11,1,1,23,7
-6,-2,31,31,17,1,7,-11,7
-7,-3,-54,-54,-22,-7,-16,-22,7
37,26,90,64,18,20,23,23,7
-14,-13,35,7,-5,-2,-4,-2,7
-3,10,-38,-9,-12,-35,-45,-13,7
16,-4,-40,-18,-3,-6,-25,-7,7
-13,12,-39,-30,5,7,13,5,7
-8,-3,-18,18,10,7,7,2,7
-9,-25,-21,-25,-34,-11,7,-2,7
-38,15,58,31,7,-6,-22,-8,7
21,2,16,5,-6,2,3,10,7
-10,-15,-22,-20,1,-3,11,-5,7
-6,-8,-36,-10,0,14,-5,-7,7
0,1,17,4,3,9,30,4,7
16,-2,-31,-7,1,0,2,-10,7
-16,-5,-28,-27,-20,2,-3,0,7
-2,8,56,13,4,-11,-13,6,7
10,-6,-43,1,0,3,7,7,7
18,23,41,13,4,9,33,4,7
-19,-10,-20,-19,-6,-10,-43,-16,7
-1,4,52,29,14,12,16,11,7
-4,-9,-33,-11,-11,-5,6,1,7
12,-13,11,-9,-9,-11,-18,4,7
-2,22,9,23,12,13,26,-8,7
-2,-15,-10,-23,-4,0,-5,4,7
13,6,54,3,-5,2,10,6,7
-4,-5,-47,-24,-3,-2,-3,9,7
-5,-8,14,7,-1,-4,-13,-19,7
-30,3,45,40,14,9,16,3,7
-5,-18,-77,-33,-15,-46,-75,-19,7
-58,-8,37,-9,-3,6,6,-8,7
7,19,6,4,2,7,14,12,7
15,12,-42,-14,-7,-21,-11,-13,7
10,-7,42,12,4,18,32,8,7
-23,-21,40,13,0,-23,-58,-12,7
2,6,-7,-19,-4,4,12,15,7
5,12,2,6,2,11,18,-8,7
15,7,-31,23,16,24,33,18,7
-1,-26,-28,-29,-6,-8,-24,-18,7
17,6,42,-4,2,2,18,12,7
-62,-4,-14,-19,-3,18,39,1,7
-1,22,31,18,-3,-29,-53,-5,7
9,-8,-32,5,0,-7,-7,-9,7
-10,0,-19,5,-4,-16,-36,-15,7
-30,-17,-8,-7,8,12,16,10,7
27,23,-2,-3,5,11,19,-15,7
-11,-17,-10,0,4,12,37,33,7
-4,-10,13,-8,-10,-2,-13,-33,7
-10,-4,36,27,4,-25,-38,-9,7
1,-27,24,9,9,4,12,10,7
41,55,-20,-9,-8,9,25,6,7
-20,-40,-6,16,2,-6,-3,11,7
41,-16,-15,-21,-3,17,49,20,7
-20,-32,-58,-40,-16,-33,-82,-68,7
-14,-15,-5,-19,1,13,6,38,7
13,78,-9,21,11,-3,-4,-33,7
-11,-30,34,48,1,0,7,6,7
11,-36,-50,-55,-2,19,32,16,7
2,-57,6,-12,-12,-6,-13,-10,7
-5,66,-10,25,13,4,9,11,7
3,-44,22,17,1,-25,-50,16,7
12,55,49,18,11,32,53,-1,7
6,-61,-42,11,-1,-7,-11,19,7
-11,-80,11,-6,2,-7,-33,-22,7
-15,39,10,17,18,4,-5,-20,7
7,-16,-29,-48,-29,-6,18,23,7
0,35,19,-15,-3,6,26,-10,7
46,25,10,13,-4,8,2,18,7
-64,-65,-2,-17,-5,-12,-43,-25,7
34,103,-74,7,22,6,-1,6,7
11,-60,34,42,5,-2,-14,-1,7
-2,-25,1,-14,-8,25,59,1,7
22,24,-30,-27,-5,-24,-29,49,7
41,19,-55,-4,1,9,28,34,7
-12,5,72,2,-3,-4,-7,-5,7
1,-18,4,-7,2,17,37,-19,7
2,0,28,24,6,-6,-42,-30,7
1,4,14,8,8,-5,0,20,7
-34,-29,-56,-39,-9,-9,-18,-13,7
5,-4,21,5,-12,21,66,21,7
-10,11,-46,-16,-2,-7,-24,-22,7
16,-5,30,10,2,-12,-10,17,7
15,26,9,17,10,4,18,9,7
-19,0,11,8,1,3,-26,-7,7
-24,-31,1,-23,-7,8,12,-14,7
24,9,49,11,3,-15,-9,5,7
3,1,11,6,3,-2,-25,-7,7
-2,-17,-42,-13,1,8,21,7,7
19,12,14,-32,-20,13,26,14,7
2,16,12,25,3,-5,-4,-7,7
-58,-24,11,12,5,-4,15,1,7
-17,-6,-51,23,12,7,3,-2,7
-8,12,-44,-26,0,-10,0,9,7
-23,-20,44,16,9,15,-10,-12,7
-39,5,-6,29,6,5,-14,-44,7
3,-8,-39,-29,-19,-13,3,7,7
28,19,39,41,21,10,22,13,7
12,16,15,-16,-6,12,40,24,7
4,-15,15,-1,-12,-33,-48,6,7
13,5,-14,-3,7,6,-2,-8,7
5,3,-27,-10,2,5,-3,4,7
-14,4,-11,-8,-9,-1,7,-10,7
15,2,-39,-9,-1,18,20,12,7
12,13,40,11,-1,-20,-17,4,7
20,-21,-47,-36,-10,-4,-9,-8,7
-74,-25,16,4,-3,8,2,-31,7
4,-15,-44,-10,-11,-22,-16,-5,7
45,9,0,6,11,1,1,23,7
-6,-2,31,31,17,1,7,-11,7
-7,-3,-54,-54,-22,-7,-16,-22,7
37,26,90,64,18,20,23,23,7
-14,-13,35,7,-5,-2,-4,-2,7
-3,10,-38,-9,-12,-35,-45,-13,7
16,-4,-40,-18,-3,-6,-25,-7,7
-13,12,-39,-30,5,7,13,5,7
-8,-3,-18,18,10,7,7,2,7
-9,-25,-21,-25,-34,-11,7,-2,7
-38,15,58,31,7,-6,-22,-8,7
21,2,16,5,-6,2,3,10,7
-10,-15,-22,-20,1,-3,11,-5,7
-6,-8,-36,-10,0,14,-5,-7,7
0,1,17,4,3,9,30,4,7
16,-2,-31,-7,1,0,2,-10,7
-16,-5,-28,-27,-20,2,-3,0,7
-2,8,56,13,4,-11,-13,6,7
10,-6,-43,1,0,3,7,7,7
18,23,41,13,4,9,33,4,7
-19,-10,-20,-19,-6,-10,-43,-16,7
-1,4,52,29,14,12,16,11,7
-4,-9,-33,-11,-11,-5,6,1,7
12,-13,11,-9,-9,-11,-18,4,7
-2,22,9,23,12,13,26,-8,7
-2,-15,-10,-23,-4,0,-5,4,7
13,6,54,3,-5,2,10,6,7
-4,-5,-47,-24,-3,-2,-3,9,7
-5,-8,14,7,-1,-4,-13,-19,7
-30,3,45,40,14,9,16,3,7
-5,-18,-77,-33,-15,-46,-75,-19,7
-58,-8,37,-9,-3,6,6,-8,7
7,19,6,4,2,7,14,12,7
15,12,-42,-14,-7,-21,-11,-13,7
10,-7,42,12,4,18,32,8,7
-23,-21,40,13,0,-23,-58,-12,7
2,6,-7,-19,-4,4,12,15,7
5,12,2,6,2,11,18,-8,7
15,7,-31,23,16,24,33,18,7
-1,-26,-28,-29,-6,-8,-24,-18,7
17,6,42,-4,2,2,18,12,7
-62,-4,-14,-19,-3,18,39,1,7
-1,22,31,18,-3,-29,-53,-5,7
9,-8,-32,5,0,-7,-7,-9,7
-10,0,-19,5,-4,-16,-36,-15,7
-30,-17,-8,-7,8,12,16,10,7
27,23,-2,-3,5,11,19,-15,7
-11,-17,-10,0,4,12,37,33,7
-4,-10,13,-8,-10,-2,-13,-33,7
-10,-4,36,27,4,-25,-38,-9,7
1,-27,24,9,9,4,12,10,7
41,55,-20,-9,-8,9,25,6,7
-20,-40,-6,16,2,-6,-3,11,7
41,-16,-15,-21,-3,17,49,20,7
-20,-32,-58,-40,-16,-33,-82,-68,7
-14,-15,-5,-19,1,13,6,38,7
13,78,-9,21,11,-3,-4,-33,7
-11,-30,34,48,1,0,7,6,7
11,-36,-50,-55,-2,19,32,16,7
2,-57,6,-12,-12,-6,-13,-10,7
-5,66,-10,25,13,4,9,11,7
3,-44,22,17,1,-25,-50,16,7
12,55,49,18,11,32,53,-1,7
6,-61,-42,11,-1,-7,-11,19,7
-11,-80,11,-6,2,-7,-33,-22,7
-15,39,10,17,18,4,-5,-20,7
7,-16,-29,-48,-29,-6,18,23,7
0,35,19,-15,-3,6,26,-10,7
46,25,10,13,-4,8,2,18,7
-64,-65,-2,-17,-5,-12,-43,-25,7
34,103,-74,7,22,6,-1,6,7
11,-60,34,42,5,-2,-14,-1,7
-2,-25,1,-14,-8,25,59,1,7
22,24,-30,-27,-5,-24,-29,49,7
-7,46,18,32,5,-1,6,-5,7
-4,-16,30,35,14,6,1,-14,7
31,60,-33,5,18,18,9,23,7
-36,-20,-29,-63,-52,-15,-5,-49,7
-6,-62,-17,13,8,-2,-10,26,7
7,36,-70,-43,-5,14,43,9,7
-50,-71,65,19,-4,-49,-45,-35,7
32,39,5,45,14,9,9,-9,7
2,39,85,50,2,2,13,24,7
43,65,-72,-73,-11,24,25,-32,7
7,-67,-17,4,27,8,17,61,7
3,38,-12,-43,-69,-28,-29,-36,7
-10,-16,126,71,14,-2,-11,-24,7
21,-7,-18,-20,-3,4,15,32,7
32,22,-72,-37,10,4,24,41,7
-26,45,80,25,19,33,18,-38,7
14,-81,18,21,8,-27,-60,-21,7
-51,19,25,27,-4,-14,-11,-5,7
-28,-2,-28,-37,-14,1,0,-27,7
53,0,-6,13,22,24,47,46,7
12,16,15,-16,-6,12,40,24,7
4,-15,15,-1,-12,-33,-48,6,7
13,5,-14,-3,7,6,-2,-8,7
5,3,-27,-10,2,5,-3,4,7
-14,4,-11,-8,-9,-1,7,-10,7
15,2,-39,-9,-1,18,20,12,7
12,13,40,11,-1,-20,-17,4,7
20,-21,-47,-36,-10,-4,-9,-8,7
-74,-25,16,4,-3,8,2,-31,7
4,-15,-44,-10,-11,-22,-16,-5,7
45,9,0,6,11,1,1,23,7
-6,-2,31,31,17,1,7,-11,7
-7,-3,-54,-54,-22,-7,-16,-22,7
37,26,90,64,18,20,23,23,7
-14,-13,35,7,-5,-2,-4,-2,7
-3,10,-38,-9,-12,-35,-45,-13,7
16,-4,-40,-18,-3,-6,-25,-7,7
-13,12,-39,-30,5,7,13,5,7
-8,-3,-18,18,10,7,7,2,7
-9,-25,-21,-25,-34,-11,7,-2,7
-38,15,58,31,7,-6,-22,-8,7
21,2,16,5,-6,2,3,10,7
-10,-15,-22,-20,1,-3,11,-5,7
-6,-8,-36,-10,0,14,-5,-7,7
0,1,17,4,3,9,30,4,7
16,-2,-31,-7,1,0,2,-10,7
-16,-5,-28,-27,-20,2,-3,0,7
-2,8,56,13,4,-11,-13,6,7
10,-6,-43,1,0,3,7,7,7
18,23,41,13,4,9,33,4,7
-19,-10,-20,-19,-6,-10,-43,-16,7
-1,4,52,29,14,12,16,11,7
-4,-9,-33,-11,-11,-5,6,1,7
12,-13,11,-9,-9,-11,-18,4,7
-2,22,9,23,12,13,26,-8,7
-2,-15,-10,-23,-4,0,-5,4,7
13,6,54,3,-5,2,10,6,7
-4,-5,-47,-24,-3,-2,-3,9,7
-5,-8,14,7,-1,-4,-13,-19,7
-30,3,45,40,14,9,16,3,7
-5,-18,-77,-33,-15,-46,-75,-19,7
-58,-8,37,-9,-3,6,6,-8,7
7,19,6,4,2,7,14,12,7
15,12,-42,-14,-7,-21,-11,-13,7
10,-7,42,12,4,18,32,8,7
-23,-21,40,13,0,-23,-58,-12,7
2,6,-7,-19,-4,4,12,15,7
5,12,2,6,2,11,18,-8,7
15,7,-31,23,16,24,33,18,7
-1,-26,-28,-29,-6,-8,-24,-18,7
17,6,42,-4,2,2,18,12,7
-62,-4,-14,-19,-3,18,39,1,7
-1,22,31,18,-3,-29,-53,-5,7
9,-8,-32,5,0,-7,-7,-9,7
-10,0,-19,5,-4,-16,-36,-15,7
-30,-17,-8,-7,8,12,16,10,7
27,23,-2,-3,5,11,19,-15,7
-11,-17,-10,0,4,12,37,33,7
-4,-10,13,-8,-10,-2,-13,-33,7
-10,-4,36,27,4,-25,-38,-9,7
1,-27,24,9,9,4,12,10,7
41,55,-20,-9,-8,9,25,6,7
-20,-40,-6,16,2,-6,-3,11,7
41,-16,-15,-21,-3,17,49,20,7
-20,-32,-58,-40,-16,-33,-82,-68,7
-14,-15,-5,-19,1,13,6,38,7
13,78,-9,21,11,-3,-4,-33,7
-11,-30,34,48,1,0,7,6,7
11,-36,-50,-55,-2,19,32,16,7
2,-57,6,-12,-12,-6,-13,-10,7
-5,66,-10,25,13,4,9,11,7
3,-44,22,17,1,-25,-50,16,7
12,55,49,18,11,32,53,-1,7
6,-61,-42,11,-1,-7,-11,19,7
-11,-80,11,-6,2,-7,-33,-22,7
-15,39,10,17,18,4,-5,-20,7
7,-16,-29,-48,-29,-6,18,23,7
0,35,19,-15,-3,6,26,-10,7
46,25,10,13,-4,8,2,18,7
-64,-65,-2,-17,-5,-12,-43,-25,7
34,103,-74,7,22,6,-1,6,7
11,-60,34,42,5,-2,-14,-1,7
-2,-25,1,-14,-8,25,59,1,7
22,24,-30,-27,-5,-24,-29,49,7
-7,46,18,32,5,-1,6,-5,7
-4,-16,30,35,14,6,1,-14,7
31,60,-33,5,18,18,9,23,7
-36,-20,-29,-63,-52,-15,-5,-49,7
-6,-62,-17,13,8,-2,-10,26,7
7,36,-70,-43,-5,14,43,9,7
-50,-71,65,19,-4,-49,-45,-35,7
32,39,5,45,14,9,9,-9,7
2,39,85,50,2,2,13,24,7
43,65,-72,-73,-11,24,25,-32,7
7,-67,-17,4,27,8,17,61,7
3,38,-12,-43,-69,-28,-29,-36,7
-10,-16,126,71,14,-2,-11,-24,7
21,-7,-18,-20,-3,4,15,32,7
32,22,-72,-37,10,4,24,41,7
-26,45,80,25,19,33,18,-38,7
14,-81,18,21,8,-27,-60,-21,7
-51,19,25,27,-4,-14,-11,-5,7
-28,-2,-28,-37,-14,1,0,-27,7
53,0,-6,13,22,24,47,46,7
-1,-10,-61,-44,-6,22,46,28,7
-13,19,55,50,2,-24,-50,-19,7
1,-32,-56,3,-6,14,23,13,7
15,24,-24,-17,4,-1,1,9,7
-27,-44,2,-11,-9,-10,-5,-12,7
1,-3,9,-52,-25,-25,-39,-15,7
-19,11,23,33,16,9,-2,-20,7
-19,-6,-21,-37,-26,5,30,-9,7
8,-17,36,30,17,-17,-59,17,7
-1,15,9,1,-10,-12,-11,-21,7
-11,-7,35,10,1,1,4,-11,7
12,-18,-68,-8,20,12,-2,5,7
-8,5,-28,-27,-13,-10,5,12,7
3,17,48,45,20,7,0,8,7
-24,4,45,-22,-30,-15,-13,-17,7
23,-14,4,23,18,9,10,-1,7
-44,4,-61,-40,-9,10,20,-17,7
8,-6,3,29,25,-13,-21,14,7
-18,30,-34,-50,-50,-19,-3,-12,7
65,-15,11,5,6,-1,-4,8,7
-15,13,20,24,8,51,103,15,7
-5,-1,-7,-7,-9,-42,-88,-17,7
3,-26,28,12,1,-7,15,4,7
43,96,7,14,13,8,29,28,7
-38,15,58,31,7,-6,-22,-8,7
21,2,16,5,-6,2,3,10,7
-10,-15,-22,-20,1,-3,11,-5,7
-6,-8,-36,-10,0,14,-5,-7,7
0,1,17,4,3,9,30,4,7
16,-2,-31,-7,1,0,2,-10,7
-16,-5,-28,-27,-20,2,-3,0,7
-2,8,56,13,4,-11,-13,6,7
10,-6,-43,1,0,3,7,7,7
18,23,41,13,4,9,33,4,7
-19,-10,-20,-19,-6,-10,-43,-16,7
-1,4,52,29,14,12,16,11,7
-4,-9,-33,-11,-11,-5,6,1,7
12,-13,11,-9,-9,-11,-18,4,7
-2,22,9,23,12,13,26,-8,7
-2,-15,-10,-23,-4,0,-5,4,7
13,6,54,3,-5,2,10,6,7
-4,-5,-47,-24,-3,-2,-3,9,7
-5,-8,14,7,-1,-4,-13,-19,7
-30,3,45,40,14,9,16,3,7
-5,-18,-77,-33,-15,-46,-75,-19,7
-58,-8,37,-9,-3,6,6,-8,7
7,19,6,4,2,7,14,12,7
15,12,-42,-14,-7,-21,-11,-13,7
10,-7,42,12,4,18,32,8,7
-23,-21,40,13,0,-23,-58,-12,7
2,6,-7,-19,-4,4,12,15,7
5,12,2,6,2,11,18,-8,7
15,7,-31,23,16,24,33,18,7
-1,-26,-28,-29,-6,-8,-24,-18,7
17,6,42,-4,2,2,18,12,7
-62,-4,-14,-19,-3,18,39,1,7
-1,22,31,18,-3,-29,-53,-5,7
9,-8,-32,5,0,-7,-7,-9,7
-10,0,-19,5,-4,-16,-36,-15,7
-30,-17,-8,-7,8,12,16,10,7
27,23,-2,-3,5,11,19,-15,7
-11,-17,-10,0,4,12,37,33,7
-4,-10,13,-8,-10,-2,-13,-33,7
-10,-4,36,27,4,-25,-38,-9,7
1,-27,24,9,9,4,12,10,7
41,55,-20,-9,-8,9,25,6,7
-20,-40,-6,16,2,-6,-3,11,7
41,-16,-15,-21,-3,17,49,20,7
-20,-32,-58,-40,-16,-33,-82,-68,7
-14,-15,-5,-19,1,13,6,38,7
13,78,-9,21,11,-3,-4,-33,7
-11,-30,34,48,1,0,7,6,7
11,-36,-50,-55,-2,19,32,16,7
2,-57,6,-12,-12,-6,-13,-10,7
-5,66,-10,25,13,4,9,11,7
3,-44,22,17,1,-25,-50,16,7
12,55,49,18,11,32,53,-1,7
6,-61,-42,11,-1,-7,-11,19,7
-11,-80,11,-6,2,-7,-33,-22,7
-15,39,10,17,18,4,-5,-20,7
7,-16,-29,-48,-29,-6,18,23,7
0,35,19,-15,-3,6,26,-10,7
46,25,10,13,-4,8,2,18,7
-64,-65,-2,-17,-5,-12,-43,-25,7
34,103,-74,7,22,6,-1,6,7
11,-60,34,42,5,-2,-14,-1,7
-2,-25,1,-14,-8,25,59,1,7
22,24,-30,-27,-5,-24,-29,49,7
-7,46,18,32,5,-1,6,-5,7
-4,-16,30,35,14,6,1,-14,7
31,60,-33,5,18,18,9,23,7
-36,-20,-29,-63,-52,-15,-5,-49,7
-6,-62,-17,13,8,-2,-10,26,7
7,36,-70,-43,-5,14,43,9,7
-50,-71,65,19,-4,-49,-45,-35,7
32,39,5,45,14,9,9,-9,7
2,39,85,50,2,2,13,24,7
43,65,-72,-73,-11,24,25,-32,7
7,-67,-17,4,27,8,17,61,7
3,38,-12,-43,-69,-28,-29,-36,7
-10,-16,126,71,14,-2,-11,-24,7
21,-7,-18,-20,-3,4,15,32,7
32,22,-72,-37,10,4,24,41,7
-26,45,80,25,19,33,18,-38,7
14,-81,18,21,8,-27,-60,-21,7
-51,19,25,27,-4,-14,-11,-5,7
-28,-2,-28,-37,-14,1,0,-27,7
53,0,-6,13,22,24,47,46,7
-1,-10,-61,-44,-6,22,46,28,7
-13,19,55,50,2,-24,-50,-19,7
1,-32,-56,3,-6,14,23,13,7
15,24,-24,-17,4,-1,1,9,7
-27,-44,2,-11,-9,-10,-5,-12,7
1,-3,9,-52,-25,-25,-39,-15,7
-19,11,23,33,16,9,-2,-20,7
-19,-6,-21,-37,-26,5,30,-9,7
8,-17,36,30,17,-17,-59,17,7
-1,15,9,1,-10,-12,-11,-21,7
-11,-7,35,10,1,1,4,-11,7
12,-18,-68,-8,20,12,-2,5,7
-8,5,-28,-27,-13,-10,5,12,7
3,17,48,45,20,7,0,8,7
-24,4,45,-22,-30,-15,-13,-17,7
23,-14,4,23,18,9,10,-1,7
-44,4,-61,-40,-9,10,20,-17,7
8,-6,3,29,25,-13,-21,14,7
-18,30,-34,-50,-50,-19,-3,-12,7
65,-15,11,5,6,-1,-4,8,7
-15,13,20,24,8,51,103,15,7
-5,-1,-7,-7,-9,-42,-88,-17,7
3,-26,28,12,1,-7,15,4,7
43,96,7,14,13,8,29,28,7
3,-50,-48,-20,-21,-13,-14,-7,7
51,17,55,3,1,21,19,-9,7
23,-9,11,7,7,7,14,5,7
-8,0,-8,-3,3,-2,0,2,7
30,21,-5,-5,3,-6,-45,14,7
-4,10,-6,-1,-3,8,31,18,7
-28,-35,-25,4,-14,-9,-27,-24,7
-37,-18,42,-1,9,21,22,-39,7
-74,4,-34,-18,-16,-43,-46,-16,7
15,-17,-35,22,13,13,13,11,7
22,27,26,-1,17,-16,-11,20,7
-32,-32,-65,-38,-35,-16,-20,-7,7
49,24,21,23,8,5,20,-9,7
-37,-17,16,-30,-7,-4,-22,-13,7
47,17,-12,25,21,14,6,15,7
-12,-15,0,23,22,2,-1,24,7
-15,13,19,-26,-20,-15,-8,-24,7
-24,-2,-19,9,5,24,49,0,7
12,-5,-8,-26,0,15,48,8,7
13,-15,-3,-1,-11,-46,-62,-1,7
-5,-18,-77,-33,-15,-46,-75,-19,7
-58,-8,37,-9,-3,6,6,-8,7
7,19,6,4,2,7,14,12,7
15,12,-42,-14,-7,-21,-11,-13,7
10,-7,42,12,4,18,32,8,7
-23,-21,40,13,0,-23,-58,-12,7
2,6,-7,-19,-4,4,12,15,7
5,12,2,6,2,11,18,-8,7
15,7,-31,23,16,24,33,18,7
-1,-26,-28,-29,-6,-8,-24,-18,7
17,6,42,-4,2,2,18,12,7
-62,-4,-14,-19,-3,18,39,1,7
-1,22,31,18,-3,-29,-53,-5,7
9,-8,-32,5,0,-7,-7,-9,7
-10,0,-19,5,-4,-16,-36,-15,7
-30,-17,-8,-7,8,12,16,10,7
27,23,-2,-3,5,11,19,-15,7
-11,-17,-10,0,4,12,37,33,7
-4,-10,13,-8,-10,-2,-13,-33,7
-10,-4,36,27,4,-25,-38,-9,7
1,-27,24,9,9,4,12,10,7
41,55,-20,-9,-8,9,25,6,7
-20,-40,-6,16,2,-6,-3,11,7
41,-16,-15,-21,-3,17,49,20,7
-20,-32,-58,-40,-16,-33,-82,-68,7
-14,-15,-5,-19,1,13,6,38,7
13,78,-9,21,11,-3,-4,-33,7
-11,-30,34,48,1,0,7,6,7
11,-36,-50,-55,-2,19,32,16,7
2,-57,6,-12,-12,-6,-13,-10,7
-5,66,-10,25,13,4,9,11,7
3,-44,22,17,1,-25,-50,16,7
12,55,49,18,11,32,53,-1,7
6,-61,-42,11,-1,-7,-11,19,7
-11,-80,11,-6,2,-7,-33,-22,7
-15,39,10,17,18,4,-5,-20,7
7,-16,-29,-48,-29,-6,18,23,7
0,35,19,-15,-3,6,26,-10,7
46,25,10,13,-4,8,2,18,7
-64,-65,-2,-17,-5,-12,-43,-25,7
34,103,-74,7,22,6,-1,6,7
11,-60,34,42,5,-2,-14,-1,7
-2,-25,1,-14,-8,25,59,1,7
22,24,-30,-27,-5,-24,-29,49,7
-7,46,18,32,5,-1,6,-5,7
-4,-16,30,35,14,6,1,-14,7
31,60,-33,5,18,18,9,23,7
-36,-20,-29,-63,-52,-15,-5,-49,7
-6,-62,-17,13,8,-2,-10,26,7
7,36,-70,-43,-5,14,43,9,7
-50,-71,65,19,-4,-49,-45,-35,7
32,39,5,45,14,9,9,-9,7
2,39,85,50,2,2,13,24,7
43,65,-72,-73,-11,24,25,-32,7
7,-67,-17,4,27,8,17,61,7
3,38,-12,-43,-69,-28,-29,-36,7
-10,-16,126,71,14,-2,-11,-24,7
21,-7,-18,-20,-3,4,15,32,7
32,22,-72,-37,10,4,24,41,7
-26,45,80,25,19,33,18,-38,7
14,-81,18,21,8,-27,-60,-21,7
-51,19,25,27,-4,-14,-11,-5,7
-28,-2,-28,-37,-14,1,0,-27,7
53,0,-6,13,22,24,47,46,7
-1,-10,-61,-44,-6,22,46,28,7
-13,19,55,50,2,-24,-50,-19,7
1,-32,-56,3,-6,14,23,13,7
15,24,-24,-17,4,-1,1,9,7
-27,-44,2,-11,-9,-10,-5,-12,7
1,-3,9,-52,-25,-25,-39,-15,7
-19,11,23,33,16,9,-2,-20,7
-19,-6,-21,-37,-26,5,30,-9,7
8,-17,36,30,17,-17,-59,17,7
-1,15,9,1,-10,-12,-11,-21,7
-11,-7,35,10,1,1,4,-11,7
12,-18,-68,-8,20,12,-2,5,7
-8,5,-28,-27,-13,-10,5,12,7
3,17,48,45,20,7,0,8,7
-24,4,45,-22,-30,-15,-13,-17,7
23,-14,4,23,18,9,10,-1,7
-44,4,-61,-40,-9,10,20,-17,7
8,-6,3,29,25,-13,-21,14,7
-18,30,-34,-50,-50,-19,-3,-12,7
65,-15,11,5,6,-1,-4,8,7
-15,13,20,24,8,51,103,15,7
-5,-1,-7,-7,-9,-42,-88,-17,7
3,-26,28,12,1,-7,15,4,7
43,96,7,14,13,8,29,28,7
3,-50,-48,-20,-21,-13,-14,-7,7
51,17,55,3,1,21,19,-9,7
23,-9,11,7,7,7,14,5,7
-8,0,-8,-3,3,-2,0,2,7
30,21,-5,-5,3,-6,-45,14,7
-4,10,-6,-1,-3,8,31,18,7
-28,-35,-25,4,-14,-9,-27,-24,7
-37,-18,42,-1,9,21,22,-39,7
-74,4,-34,-18,-16,-43,-46,-16,7
15,-17,-35,22,13,13,13,11,7
22,27,26,-1,17,-16,-11,20,7
-32,-32,-65,-38,-35,-16,-20,-7,7
49,24,21,23,8,5,20,-9,7
-37,-17,16,-30,-7,-4,-22,-13,7
47,17,-12,25,21,14,6,15,7
-12,-15,0,23,22,2,-1,24,7
-15,13,19,-26,-20,-15,-8,-24,7
-24,-2,-19,9,5,24,49,0,7
12,-5,-8,-26,0,15,48,8,7
13,-15,-3,-1,-11,-46,-62,-1,7
51,24,-14,5,6,10,17,29,7
-18,-15,16,7,2,21,24,-26,7
-6,8,32,3,-13,-19,-7,-1,7
-5,-4,-13,-5,4,5,-19,-12,7
1,0,13,17,18,10,21,21,7
63,-13,6,16,18,0,-2,37,7
-113,-19,-41,-10,-38,-16,-33,-76,7
40,7,77,0,-4,1,10,18,7
4,-8,-40,-12,-2,8,1,-6,7
8,2,-33,0,4,14,32,8,7
21,6,1,13,20,8,4,32,7
15,-17,-1,13,-1,-42,-42,-8,7
-51,36,8,-13,-12,-5,-1,-29,7
16,20,-4,3,2,7,10,2,7
-52,-23,-3,-10,2,4,-8,17,7
4,3,-27,-3,-2,9,15,10,7
24,-24,-34,-17,2,-9,-27,-2,7
0,27,29,13,-10,-14,-9,7,7
-17,-5,15,9,-2,7,5,-21,7
-14,8,40,8,8,10,7,-8,7
-20,-32,-58,-40,-16,-33,-82,-68,7
-14,-15,-5,-19,1,13,6,38,7
13,78,-9,21,11,-3,-4,-33,7
-11,-30,34,48,1,0,7,6,7
11,-36,-50,-55,-2,19,32,16,7
2,-57,6,-12,-12,-6,-13,-10,7
-5,66,-10,25,13,4,9,11,7
3,-44,22,17,1,-25,-50,16,7
12,55,49,18,11,32,53,-1,7
6,-61,-42,11,-1,-7,-11,19,7
-11,-80,11,-6,2,-7,-33,-22,7
-15,39,10,17,18,4,-5,-20,7
7,-16,-29,-48,-29,-6,18,23,7
0,35,19,-15,-3,6,26,-10,7
46,25,10,13,-4,8,2,18,7
-64,-65,-2,-17,-5,-12,-43,-25,7
34,103,-74,7,22,6,-1,6,7
11,-60,34,42,5,-2,-14,-1,7
-2,-25,1,-14,-8,25,59,1,7
22,24,-30,-27,-5,-24,-29,49,7
-7,46,18,32,5,-1,6,-5,7
-4,-16,30,35,14,6,1,-14,7
31,60,-33,5,18,18,9,23,7
-36,-20,-29,-63,-52,-15,-5,-49,7
-6,-62,-17,13,8,-2,-10,26,7
7,36,-70,-43,-5,14,43,9,7
-50,-71,65,19,-4,-49,-45,-35,7
32,39,5,45,14,9,9,-9,7
2,39,85,50,2,2,13,24,7
43,65,-72,-73,-11,24,25,-32,7
7,-67,-17,4,27,8,17,61,7
3,38,-12,-43,-69,-28,-29,-36,7
-10,-16,126,71,14,-2,-11,-24,7
21,-7,-18,-20,-3,4,15,32,7
32,22,-72,-37,10,4,24,41,7
-26,45,80,25,19,33,18,-38,7
14,-81,18,21,8,-27,-60,-21,7
-51,19,25,27,-4,-14,-11,-5,7
-28,-2,-28,-37,-14,1,0,-27,7
53,0,-6,13,22,24,47,46,7
-1,-10,-61,-44,-6,22,46,28,7
-13,19,55,50,2,-24,-50,-19,7
1,-32,-56,3,-6,14,23,13,7
15,24,-24,-17,4,-1,1,9,7
-27,-44,2,-11,-9,-10,-5,-12,7
1,-3,9,-52,-25,-25,-39,-15,7
-19,11,23,33,16,9,-2,-20,7
-19,-6,-21,-37,-26,5,30,-9,7
8,-17,36,30,17,-17,-59,17,7
-1,15,9,1,-10,-12,-11,-21,7
-11,-7,35,10,1,1,4,-11,7
12,-18,-68,-8,20,12,-2,5,7
-8,5,-28,-27,-13,-10,5,12,7
3,17,48,45,20,7,0,8,7
-24,4,45,-22,-30,-15,-13,-17,7
23,-14,4,23,18,9,10,-1,7
-44,4,-61,-40,-9,10,20,-17,7
8,-6,3,29,25,-13,-21,14,7
-18,30,-34,-50,-50,-19,-3,-12,7
65,-15,11,5,6,-1,-4,8,7
-15,13,20,24,8,51,103,15,7
-5,-1,-7,-7,-9,-42,-88,-17,7
3,-26,28,12,1,-7,15,4,7
43,96,7,14,13,8,29,28,7
3,-50,-48,-20,-21,-13,-14,-7,7
51,17,55,3,1,21,19,-9,7
23,-9,11,7,7,7,14,5,7
-8,0,-8,-3,3,-2,0,2,7
30,21,-5,-5,3,-6,-45,14,7
-4,10,-6,-1,-3,8,31,18,7
-28,-35,-25,4,-14,-9,-27,-24,7
-37,-18,42,-1,9,21,22,-39,7
-74,4,-34,-18,-16,-43,-46,-16,7
15,-17,-35,22,13,13,13,11,7
22,27,26,-1,17,-16,-11,20,7
-32,-32,-65,-38,-35,-16,-20,-7,7
49,24,21,23,8,5,20,-9,7
-37,-17,16,-30,-7,-4,-22,-13,7
47,17,-12,25,21,14,6,15,7
-12,-15,0,23,22,2,-1,24,7
-15,13,19,-26,-20,-15,-8,-24,7
-24,-2,-19,9,5,24,49,0,7
12,-5,-8,-26,0,15,48,8,7
13,-15,-3,-1,-11,-46,-62,-1,7
51,24,-14,5,6,10,17,29,7
-18,-15,16,7,2,21,24,-26,7
-6,8,32,3,-13,-19,-7,-1,7
-5,-4,-13,-5,4,5,-19,-12,7
1,0,13,17,18,10,21,21,7
63,-13,6,16,18,0,-2,37,7
-113,-19,-41,-10,-38,-16,-33,-76,7
40,7,77,0,-4,1,10,18,7
4,-8,-40,-12,-2,8,1,-6,7
8,2,-33,0,4,14,32,8,7
21,6,1,13,20,8,4,32,7
15,-17,-1,13,-1,-42,-42,-8,7
-51,36,8,-13,-12,-5,-1,-29,7
16,20,-4,3,2,7,10,2,7
-52,-23,-3,-10,2,4,-8,17,7
4,3,-27,-3,-2,9,15,10,7
24,-24,-34,-17,2,-9,-27,-2,7
0,27,29,13,-10,-14,-9,7,7
-17,-5,15,9,-2,7,5,-21,7
-14,8,40,8,8,10,7,-8,7
22,4,20,9,7,6,9,33,7
-73,2,2,-19,-10,0,-6,-13,7
-1,-14,-56,-20,3,3,-2,-2,7
-18,-14,-10,3,-3,1,12,-1,7
-8,7,-1,18,5,29,52,-18,7
11,1,28,-6,-17,-63,-91,-16,7
48,7,0,18,22,2,8,17,7
-87,-9,6,-2,-11,-7,-11,-11,7
59,3,9,-13,-3,5,6,15,7
-30,-19,-40,-9,2,20,26,-12,7
10,4,31,33,12,5,0,8,7
69,15,-5,-7,-14,-3,15,17,7
-59,-30,-52,-54,-26,-15,-22,-54,7
49,14,27,-15,-7,-3,9,32,7
-49,-16,12,4,4,25,14,-34,7
-3,4,1,12,7,-18,-19,-6,7
41,4,16,57,39,12,6,19,7
17,-18,-31,-95,-87,-37,-11,-8,7
-30,32,-51,-25,-26,15,30,0,7
14,-20,-13,9,15,13,24,7,7
5,-3,-75,-21,-2,-19,-36,6,7
-48,-1,16,34,27,3,-8,-21,7
47,-2,27,20,0,-10,2,23,7
-8,3,1,-16,-3,22,16,-1,7
-7,46,18,32,5,-1,6,-5,7
-4,-16,30,35,14,6,1,-14,7
31,60,-33,5,18,18,9,23,7
-36,-20,-29,-63,-52,-15,-5,-49,7
-6,-62,-17,13,8,-2,-10,26,7
7,36,-70,-43,-5,14,43,9,7
-50,-71,65,19,-4,-49,-45,-35,7
32,39,5,45,14,9,9,-9,7
2,39,85,50,2,2,13,24,7
43,65,-72,-73,-11,24,25,-32,7
7,-67,-17,4,27,8,17,61,7
3,38,-12,-43,-69,-28,-29,-36,7
-10,-16,126,71,14,-2,-11,-24,7
21,-7,-18,-20,-3,4,15,32,7
32,22,-72,-37,10,4,24,41,7
-26,45,80,25,19,33,18,-38,7
14,-81,18,21,8,-27,-60,-21,7
-51,19,25,27,-4,-14,-11,-5,7
-28,-2,-28,-37,-14,1,0,-27,7
53,0,-6,13,22,24,47,46,7
-1,-10,-61,-44,-6,22,46,28,7
-13,19,55,50,2,-24,-50,-19,7
1,-32,-56,3,-6,14,23,13,7
15,24,-24,-17,4,-1,1,9,7
-27,-44,2,-11,-9,-10,-5,-12,7
1,-3,9,-52,-25,-25,-39,-15,7
-19,11,23,33,16,9,-2,-20,7
-19,-6,-21,-37,-26,5,30,-9,7
8,-17,36,30,17,-17,-59,17,7
-1,15,9,1,-10,-12,-11,-21,7
-11,-7,35,10,1,1,4,-11,7
12,-18,-68,-8,20,12,-2,5,7
-8,5,-28,-27,-13,-10,5,12,7
3,17,48,45,20,7,0,8,7
-24,4,45,-22,-30,-15,-13,-17,7
23,-14,4,23,18,9,10,-1,7
-44,4,-61,-40,-9,10,20,-17,7
8,-6,3,29,25,-13,-21,14,7
-18,30,-34,-50,-50,-19,-3,-12,7
65,-15,11,5,6,-1,-4,8,7
-15,13,20,24,8,51,103,15,7
-5,-1,-7,-7,-9,-42,-88,-17,7
3,-26,28,12,1,-7,15,4,7
43,96,7,14,13,8,29,28,7
3,-50,-48,-20,-21,-13,-14,-7,7
51,17,55,3,1,21,19,-9,7
23,-9,11,7,7,7,14,5,7
-8,0,-8,-3,3,-2,0,2,7
30,21,-5,-5,3,-6,-45,14,7
-4,10,-6,-1,-3,8,31,18,7
-28,-35,-25,4,-14,-9,-27,-24,7
-37,-18,42,-1,9,21,22,-39,7
-74,4,-34,-18,-16,-43,-46,-16,7
15,-17,-35,22,13,13,13,11,7
22,27,26,-1,17,-16,-11,20,7
-32,-32,-65,-38,-35,-16,-20,-7,7
49,24,21,23,8,5,20,-9,7
-37,-17,16,-30,-7,-4,-22,-13,7
47,17,-12,25,21,14,6,15,7
-12,-15,0,23,22,2,-1,24,7
-15,13,19,-26,-20,-15,-8,-24,7
-24,-2,-19,9,5,24,49,0,7
12,-5,-8,-26,0,15,48,8,7
13,-15,-3,-1,-11,-46,-62,-1,7
51,24,-14,5,6,10,17,29,7
-18,-15,16,7,2,21,24,-26,7
-6,8,32,3,-13,-19,-7,-1,7
-5,-4,-13,-5,4,5,-19,-12,7
1,0,13,17,18,10,21,21,7
63,-13,6,16,18,0,-2,37,7
-113,-19,-41,-10,-38,-16,-33,-76,7
40,7,77,0,-4,1,10,18,7
4,-8,-40,-12,-2,8,1,-6,7
8,2,-33,0,4,14,32,8,7
21,6,1,13,20,8,4,32,7
15,-17,-1,13,-1,-42,-42,-8,7
-51,36,8,-13,-12,-5,-1,-29,7
16,20,-4,3,2,7,10,2,7
-52,-23,-3,-10,2,4,-8,17,7
4,3,-27,-3,-2,9,15,10,7
24,-24,-34,-17,2,-9,-27,-2,7
0,27,29,13,-10,-14,-9,7,7
-17,-5,15,9,-2,7,5,-21,7
-14,8,40,8,8,10,7,-8,7
22,4,20,9,7,6,9,33,7
-73,2,2,-19,-10,0,-6,-13,7
-1,-14,-56,-20,3,3,-2,-2,7
-18,-14,-10,3,-3,1,12,-1,7
-8,7,-1,18,5,29,52,-18,7
11,1,28,-6,-17,-63,-91,-16,7
48,7,0,18,22,2,8,17,7
-87,-9,6,-2,-11,-7,-11,-11,7
59,3,9,-13,-3,5,6,15,7
-30,-19,-40,-9,2,20,26,-12,7
10,4,31,33,12,5,0,8,7
69,15,-5,-7,-14,-3,15,17,7
-59,-30,-52,-54,-26,-15,-22,-54,7
49,14,27,-15,-7,-3,9,32,7
-49,-16,12,4,4,25,14,-34,7
-3,4,1,12,7,-18,-19,-6,7
41,4,16,57,39,12,6,19,7
17,-18,-31,-95,-87,-37,-11,-8,7
-30,32,-51,-25,-26,15,30,0,7
14,-20,-13,9,15,13,24,7,7
5,-3,-75,-21,-2,-19,-36,6,7
-48,-1,16,34,27,3,-8,-21,7
47,-2,27,20,0,-10,2,23,7
-8,3,1,-16,-3,22,16,-1,7
-54,-21,2,-24,-16,-20,-41,-35,7
22,0,-75,-48,-18,-6,15,-7,7
-5,5,56,55,11,-4,-2,32,7
24,-9,-108,-29,1,7,-9,16,7
57,31,110,34,13,28,65,24,7
-30,-6,-67,-4,0,-25,-69,-6,7
6,5,51,7,26,20,16,-9,7
-36,-9,-30,5,-34,-31,-41,-18,7
4,3,40,-44,1,5,9,13,7
-70,-40,-18,-10,-16,-2,-3,-32,7
8,8,-81,-19,5,13,26,5,7
65,34,52,19,15,7,15,24,7
-14,-36,-31,14,-6,-30,-66,-12,7
-39,33,112,82,28,13,29,-18,7
38,-11,11,-25,-4,9,-9,5,7
-3,1,-11,-18,1,6,39,30,7
-1,4,69,33,-4,-1,-15,-35,7
37,-2,-50,-20,17,-4,-34,40,7
-28,-17,58,9,-11,-4,-6,-28,7
33,22,51,5,11,11,8,-3,7
-1,-10,-61,-44,-6,22,46,28,7
-13,19,55,50,2,-24,-50,-19,7
1,-32,-56,3,-6,14,23,13,7
15,24,-24,-17,4,-1,1,9,7
-27,-44,2,-11,-9,-10,-5,-12,7
1,-3,9,-52,-25,-25,-39,-15,7
-19,11,23,33,16,9,-2,-20,7
-19,-6,-21,-37,-26,5,30,-9,7
8,-17,36,30,17,-17,-59,17,7
-1,15,9,1,-10,-12,-11,-21,7
-11,-7,35,10,1,1,4,-11,7
12,-18,-68,-8,20,12,-2,5,7
-8,5,-28,-27,-13,-10,5,12,7
3,17,48,45,20,7,0,8,7
-24,4,45,-22,-30,-15,-13,-17,7
23,-14,4,23,18,9,10,-1,7
-44,4,-61,-40,-9,10,20,-17,7
8,-6,3,29,25,-13,-21,14,7
-18,30,-34,-50,-50,-19,-3,-12,7
65,-15,11,5,6,-1,-4,8,7
-15,13,20,24,8,51,103,15,7
-5,-1,-7,-7,-9,-42,-88,-17,7
3,-26,28,12,1,-7,15,4,7
43,96,7,14,13,8,29,28,7
3,-50,-48,-20,-21,-13,-14,-7,7
51,17,55,3,1,21,19,-9,7
23,-9,11,7,7,7,14,5,7
-8,0,-8,-3,3,-2,0,2,7
30,21,-5,-5,3,-6,-45,14,7
-4,10,-6,-1,-3,8,31,18,7
-28,-35,-25,4,-14,-9,-27,-24,7
-37,-18,42,-1,9,21,22,-39,7
-74,4,-34,-18,-16,-43,-46,-16,7
15,-17,-35,22,13,13,13,11,7
22,27,26,-1,17,-16,-11,20,7
-32,-32,-65,-38,-35,-16,-20,-7,7
49,24,21,23,8,5,20,-9,7
-37,-17,16,-30,-7,-4,-22,-13,7
47,17,-12,25,21,14,6,15,7
-12,-15,0,23,22,2,-1,24,7
-15,13,19,-26,-20,-15,-8,-24,7
-24,-2,-19,9,5,24,49,0,7
12,-5,-8,-26,0,15,48,8,7
13,-15,-3,-1,-11,-46,-62,-1,7
51,24,-14,5,6,10,17,29,7
-18,-15,16,7,2,21,24,-26,7
-6,8,32,3,-13,-19,-7,-1,7
-5,-4,-13,-5,4,5,-19,-12,7
1,0,13,17,18,10,21,21,7
63,-13,6,16,18,0,-2,37,7
-113,-19,-41,-10,-38,-16,-33,-76,7
40,7,77,0,-4,1,10,18,7
4,-8,-40,-12,-2,8,1,-6,7
8,2,-33,0,4,14,32,8,7
21,6,1,13,20,8,4,32,7
15,-17,-1,13,-1,-42,-42,-8,7
-51,36,8,-13,-12,-5,-1,-29,7
16,20,-4,3,2,7,10,2,7
-52,-23,-3,-10,2,4,-8,17,7
4,3,-27,-3,-2,9,15,10,7
24,-24,-34,-17,2,-9,-27,-2,7
0,27,29,13,-10,-14,-9,7,7
-17,-5,15,9,-2,7,5,-21,7
-14,8,40,8,8,10,7,-8,7
22,4,20,9,7,6,9,33,7
-73,2,2,-19,-10,0,-6,-13,7
-1,-14,-56,-20,3,3,-2,-2,7
-18,-14,-10,3,-3,1,12,-1,7
-8,7,-1,18,5,29,52,-18,7
11,1,28,-6,-17,-63,-91,-16,7
48,7,0,18,22,2,8,17,7
-87,-9,6,-2,-11,-7,-11,-11,7
59,3,9,-13,-3,5,6,15,7
-30,-19,-40,-9,2,20,26,-12,7
10,4,31,33,12,5,0,8,7
69,15,-5,-7,-14,-3,15,17,7
-59,-30,-52,-54,-26,-15,-22,-54,7
49,14,27,-15,-7,-3,9,32,7
-49,-16,12,4,4,25,14,-34,7
-3,4,1,12,7,-18,-19,-6,7
41,4,16,57,39,12,6,19,7
17,-18,-31,-95,-87,-37,-11,-8,7
-30,32,-51,-25,-26,15,30,0,7
14,-20,-13,9,15,13,24,7,7
5,-3,-75,-21,-2,-19,-36,6,7
-48,-1,16,34,27,3,-8,-21,7
47,-2,27,20,0,-10,2,23,7
-8,3,1,-16,-3,22,16,-1,7
-54,-21,2,-24,-16,-20,-41,-35,7
22,0,-75,-48,-18,-6,15,-7,7
-5,5,56,55,11,-4,-2,32,7
24,-9,-108,-29,1,7,-9,16,7
57,31,110,34,13,28,65,24,7
-30,-6,-67,-4,0,-25,-69,-6,7
6,5,51,7,26,20,16,-9,7
-36,-9,-30,5,-34,-31,-41,-18,7
4,3,40,-44,1,5,9,13,7
-70,-40,-18,-10,-16,-2,-3,-32,7
8,8,-81,-19,5,13,26,5,7
65,34,52,19,15,7,15,24,7
-14,-36,-31,14,-6,-30,-66,-12,7
-39,33,112,82,28,13,29,-18,7
38,-11,11,-25,-4,9,-9,5,7
-3,1,-11,-18,1,6,39,30,7
-1,4,69,33,-4,-1,-15,-35,7
37,-2,-50,-20,17,-4,-34,40,7
-28,-17,58,9,-11,-4,-6,-28,7
33,22,51,5,11,11,8,-3,7
-58,4,-4,55,12,9,22,-5,7
34,-4,22,-63,-11,5,21,34,7
51,28,-102,-21,20,5,-7,9,7
-84,-27,69,31,-37,-21,-30,-42,7
20,-5,-78,-26,-7,3,19,27,7
20,19,-23,27,14,26,32,-10,7
16,2,-24,-23,-3,-16,-37,27,7
-59,-9,6,8,22,-27,-37,-12,7
-62,-15,-16,0,-4,8,29,-30,7
23,4,33,3,-21,-23,-60,-11,7
-36,15,-28,-3,-4,14,32,36,7
39,5,-90,-36,-6,31,42,-29,7
-4,9,127,22,-12,-52,-62,12,7
7,-11,-49,99,60,13,3,3,7
70,8,-74,-93,-82,-29,-4,15,7
-57,-19,45,50,13,6,-8,-32,7
117,12,-11,24,6,26,25,22,7
37,0,17,-24,-13,-27,-2,18,7
-56,-31,2,10,5,-9,-26,-27,7
-6,10,-47,-28,11,8,20,11,7
-15,13,20,24,8,51,103,15,7
-5,-1,-7,-7,-9,-42,-88,-17,7
3,-26,28,12,1,-7,15,4,7
43,96,7,14,13,8,29,28,7
3,-50,-48,-20,-21,-13,-14,-7,7
51,17,55,3,1,21,19,-9,7
23,-9,11,7,7,7,14,5,7
-8,0,-8,-3,3,-2,0,2,7
30,21,-5,-5,3,-6,-45,14,7
-4,10,-6,-1,-3,8,31,18,7
-28,-35,-25,4,-14,-9,-27,-24,7
-37,-18,42,-1,9,21,22,-39,7
-74,4,-34,-18,-16,-43,-46,-16,7
15,-17,-35,22,13,13,13,11,7
22,27,26,-1,17,-16,-11,20,7
-32,-32,-65,-38,-35,-16,-20,-7,7
49,24,21,23,8,5,20,-9,7
-37,-17,16,-30,-7,-4,-22,-13,7
47,17,-12,25,21,14,6,15,7
-12,-15,0,23,22,2,-1,24,7
-15,13,19,-26,-20,-15,-8,-24,7
-24,-2,-19,9,5,24,49,0,7
12,-5,-8,-26,0,15,48,8,7
13,-15,-3,-1,-11,-46,-62,-1,7
51,24,-14,5,6,10,17,29,7
-18,-15,16,7,2,21,24,-26,7
-6,8,32,3,-13,-19,-7,-1,7
-5,-4,-13,-5,4,5,-19,-12,7
1,0,13,17,18,10,21,21,7
63,-13,6,16,18,0,-2,37,7
-113,-19,-41,-10,-38,-16,-33,-76,7
40,7,77,0,-4,1,10,18,7
4,-8,-40,-12,-2,8,1,-6,7
8,2,-33,0,4,14,32,8,7
21,6,1,13,20,8,4,32,7
15,-17,-1,13,-1,-42,-42,-8,7
-51,36,8,-13,-12,-5,-1,-29,7
16,20,-4,3,2,7,10,2,7
-52,-23,-3,-10,2,4,-8,17,7
4,3,-27,-3,-2,9,15,10,7
24,-24,-34,-17,2,-9,-27,-2,7
0,27,29,13,-10,-14,-9,7,7
-17,-5,15,9,-2,7,5,-21,7
-14,8,40,8,8,10,7,-8,7
22,4,20,9,7,6,9,33,7
-73,2,2,-19,-10,0,-6,-13,7
-1,-14,-56,-20,3,3,-2,-2,7
-18,-14,-10,3,-3,1,12,-1,7
-8,7,-1,18,5,29,52,-18,7
11,1,28,-6,-17,-63,-91,-16,7
48,7,0,18,22,2,8,17,7
-87,-9,6,-2,-11,-7,-11,-11,7
59,3,9,-13,-3,5,6,15,7
-30,-19,-40,-9,2,20,26,-12,7
10,4,31,33,12,5,0,8,7
69,15,-5,-7,-14,-3,15,17,7
-59,-30,-52,-54,-26,-15,-22,-54,7
49,14,27,-15,-7,-3,9,32,7
-49,-16,12,4,4,25,14,-34,7
-3,4,1,12,7,-18,-19,-6,7
41,4,16,57,39,12,6,19,7
17,-18,-31,-95,-87,-37,-11,-8,7
-30,32,-51,-25,-26,15,30,0,7
14,-20,-13,9,15,13,24,7,7
5,-3,-75,-21,-2,-19,-36,6,7
-48,-1,16,34,27,3,-8,-21,7
47,-2,27,20,0,-10,2,23,7
-8,3,1,-16,-3,22,16,-1,7
-54,-21,2,-24,-16,-20,-41,-35,7
22,0,-75,-48,-18,-6,15,-7,7
-5,5,56,55,11,-4,-2,32,7
24,-9,-108,-29,1,7,-9,16,7
57,31,110,34,13,28,65,24,7
-30,-6,-67,-4,0,-25,-69,-6,7
6,5,51,7,26,20,16,-9,7
-36,-9,-30,5,-34,-31,-41,-18,7
4,3,40,-44,1,5,9,13,7
-70,-40,-18,-10,-16,-2,-3,-32,7
8,8,-81,-19,5,13,26,5,7
65,34,52,19,15,7,15,24,7
-14,-36,-31,14,-6,-30,-66,-12,7
-39,33,112,82,28,13,29,-18,7
38,-11,11,-25,-4,9,-9,5,7
-3,1,-11,-18,1,6,39,30,7
-1,4,69,33,-4,-1,-15,-35,7
37,-2,-50,-20,17,-4,-34,40,7
-28,-17,58,9,-11,-4,-6,-28,7
33,22,51,5,11,11,8,-3,7
-58,4,-4,55,12,9,22,-5,7
34,-4,22,-63,-11,5,21,34,7
51,28,-102,-21,20,5,-7,9,7
-84,-27,69,31,-37,-21,-30,-42,7
20,-5,-78,-26,-7,3,19,27,7
20,19,-23,27,14,26,32,-10,7
16,2,-24,-23,-3,-16,-37,27,7
-59,-9,6,8,22,-27,-37,-12,7
-62,-15,-16,0,-4,8,29,-30,7
23,4,33,3,-21,-23,-60,-11,7
-36,15,-28,-3,-4,14,32,36,7
39,5,-90,-36,-6,31,42,-29,7
-4,9,127,22,-12,-52,-62,12,7
7,-11,-49,99,60,13,3,3,7
70,8,-74,-93,-82,-29,-4,15,7
-57,-19,45,50,13,6,-8,-32,7
117,12,-11,24,6,26,25,22,7
37,0,17,-24,-13,-27,-2,18,7
-56,-31,2,10,5,-9,-26,-27,7
-6,10,-47,-28,11,8,20,11,7
25,-20,-35,-20,7,20,24,-4,7
-4,6,-60,-30,-4,9,8,0,7
2,-6,-10,2,3,-4,16,-25,7
4,-12,7,-14,-2,13,-19,13,7
26,39,82,36,13,-10,-15,13,7
-87,-29,-63,-15,25,31,40,-15,7
20,-3,-11,-65,-59,-28,-5,21,7
39,4,34,35,12,5,-10,-31,7
-47,-18,-113,-30,-4,-23,-30,-4,7
85,31,126,67,24,16,13,38,7
1,2,47,73,21,1,-10,-9,7
-26,-26,53,-44,-7,-2,15,13,7
-28,-10,-80,-44,-24,1,-12,-21,7
-5,-7,-52,-63,-53,-22,-7,-19,7
-43,0,49,43,33,29,17,-6,7
80,0,-90,26,11,-24,-20,29,7
-40,12,53,-22,-22,5,16,-1,7
17,7,54,37,9,5,9,1,7
-14,11,38,-24,3,-8,-33,-17,7
51,1,-64,-10,7,34,62,35,7
51,24,-14,5,6,10,17,29,7
-18,-15,16,7,2,21,24,-26,7
-6,8,32,3,-13,-19,-7,-1,7
-5,-4,-13,-5,4,5,-19,-12,7
1,0,13,17,18,10,21,21,7
63,-13,6,16,18,0,-2,37,7
-113,-19,-41,-10,-38,-16,-33,-76,7
40,7,77,0,-4,1,10,18,7
4,-8,-40,-12,-2,8,1,-6,7
8,2,-33,0,4,14,32,8,7
21,6,1,13,20,8,4,32,7
15,-17,-1,13,-1,-42,-42,-8,7
-51,36,8,-13,-12,-5,-1,-29,7
16,20,-4,3,2,7,10,2,7
-52,-23,-3,-10,2,4,-8,17,7
4,3,-27,-3,-2,9,15,10,7
24,-24,-34,-17,2,-9,-27,-2,7
0,27,29,13,-10,-14,-9,7,7
-17,-5,15,9,-2,7,5,-21,7
-14,8,40,8,8,10,7,-8,7
22,4,20,9,7,6,9,33,7
-73,2,2,-19,-10,0,-6,-13,7
-1,-14,-56,-20,3,3,-2,-2,7
-18,-14,-10,3,-3,1,12,-1,7
-8,7,-1,18,5,29,52,-18,7
11,1,28,-6,-17,-63,-91,-16,7
48,7,0,18,22,2,8,17,7
-87,-9,6,-2,-11,-7,-11,-11,7
59,3,9,-13,-3,5,6,15,7
-30,-19,-40,-9,2,20,26,-12,7
10,4,31,33,12,5,0,8,7
69,15,-5,-7,-14,-3,15,17,7
-59,-30,-52,-54,-26,-15,-22,-54,7
49,14,27,-15,-7,-3,9,32,7
-49,-16,12,4,4,25,14,-34,7
-3,4,1,12,7,-18,-19,-6,7
41,4,16,57,39,12,6,19,7
17,-18,-31,-95,-87,-37,-11,-8,7
-30,32,-51,-25,-26,15,30,0,7
14,-20,-13,9,15,13,24,7,7
5,-3,-75,-21,-2,-19,-36,6,7
-48,-1,16,34,27,3,-8,-21,7
47,-2,27,20,0,-10,2,23,7
-8,3,1,-16,-3,22,16,-1,7
-54,-21,2,-24,-16,-20,-41,-35,7
22,0,-75,-48,-18,-6,15,-7,7
-5,5,56,55,11,-4,-2,32,7
24,-9,-108,-29,1,7,-9,16,7
57,31,110,34,13,28,65,24,7
-30,-6,-67,-4,0,-25,-69,-6,7
6,5,51,7,26,20,16,-9,7
-36,-9,-30,5,-34,-31,-41,-18,7
4,3,40,-44,1,5,9,13,7
-70,-40,-18,-10,-16,-2,-3,-32,7
8,8,-81,-19,5,13,26,5,7
65,34,52,19,15,7,15,24,7
-14,-36,-31,14,-6,-30,-66,-12,7
-39,33,112,82,28,13,29,-18,7
38,-11,11,-25,-4,9,-9,5,7
-3,1,-11,-18,1,6,39,30,7
-1,4,69,33,-4,-1,-15,-35,7
37,-2,-50,-20,17,-4,-34,40,7
-28,-17,58,9,-11,-4,-6,-28,7
33,22,51,5,11,11,8,-3,7
-58,4,-4,55,12,9,22,-5,7
34,-4,22,-63,-11,5,21,34,7
51,28,-102,-21,20,5,-7,9,7
-84,-27,69,31,-37,-21,-30,-42,7
20,-5,-78,-26,-7,3,19,27,7
20,19,-23,27,14,26,32,-10,7
16,2,-24,-23,-3,-16,-37,27,7
-59,-9,6,8,22,-27,-37,-12,7
-62,-15,-16,0,-4,8,29,-30,7
23,4,33,3,-21,-23,-60,-11,7
-36,15,-28,-3,-4,14,32,36,7
39,5,-90,-36,-6,31,42,-29,7
-4,9,127,22,-12,-52,-62,12,7
7,-11,-49,99,60,13,3,3,7
70,8,-74,-93,-82,-29,-4,15,7
-57,-19,45,50,13,6,-8,-32,7
117,12,-11,24,6,26,25,22,7
37,0,17,-24,-13,-27,-2,18,7
-56,-31,2,10,5,-9,-26,-27,7
-6,10,-47,-28,11,8,20,11,7
25,-20,-35,-20,7,20,24,-4,7
-4,6,-60,-30,-4,9,8,0,7
2,-6,-10,2,3,-4,16,-25,7
4,-12,7,-14,-2,13,-19,13,7
26,39,82,36,13,-10,-15,13,7
-87,-29,-63,-15,25,31,40,-15,7
20,-3,-11,-65,-59,-28,-5,21,7
39,4,34,35,12,5,-10,-31,7
-47,-18,-113,-30,-4,-23,-30,-4,7
85,31,126,67,24,16,13,38,7
1,2,47,73,21,1,-10,-9,7
-26,-26,53,-44,-7,-2,15,13,7
-28,-10,-80,-44,-24,1,-12,-21,7
-5,-7,-52,-63,-53,-22,-7,-19,7
-43,0,49,43,33,29,17,-6,7
80,0,-90,26,11,-24,-20,29,7
-40,12,53,-22,-22,5,16,-1,7
17,7,54,37,9,5,9,1,7
-14,11,38,-24,3,-8,-33,-17,7
51,1,-64,-10,7,34,62,35,7
27,-15,-65,-27,-16,-51,-69,-21,7
-21,-31,-27,12,0,-21,-20,-29,7
-8,-16,38,12,-17,-25,-29,-34,7
13,12,6,-6,7,-13,-16,16,7
3,32,96,61,18,22,32,31,7
1,10,-19,0,21,20,27,24,7
44,6,-52,-18,-7,-16,-22,17,7
-9,-16,83,-26,-39,-11,-11,-24,7
-48,53,-20,25,12,23,48,-7,7
-59,-5,54,13,-2,-18,-51,-16,7
46,-13,3,37,30,14,39,12,7
-57,20,-24,1,7,2,3,6,7
41,7,-9,-37,-15,17,29,30,7
-15,-3,-11,-5,7,-17,-12,-25,7
-35,7,22,9,3,27,61,11,7
-68,-44,2,16,-11,-36,-83,-67,7
23,-26,-26,-26,2,-20,-36,33,7
-43,6,1,32,6,30,47,27,7
6,8,-39,3,13,14,3,-39,7
21,27,52,63,19,4,13,30,7
-6,-17,-62,-85,-40,-5,-18,-35,7
-35,-23,-2,28,-14,-3,6,2,7
-50,14,42,38,38,22,25,-4,7
52,40,24,-8,-11,27,27,52,7
22,4,20,9,7,6,9,33,7
-73,2,2,-19,-10,0,-6,-13,7
-1,-14,-56,-20,3,3,-2,-2,7
-18,-14,-10,3,-3,1,12,-1,7
-8,7,-1,18,5,29,52,-18,7
11,1,28,-6,-17,-63,-91,-16,7
48,7,0,18,22,2,8,17,7
-87,-9,6,-2,-11,-7,-11,-11,7
59,3,9,-13,-3,5,6,15,7
-30,-19,-40,-9,2,20,26,-12,7
10,4,31,33,12,5,0,8,7
69,15,-5,-7,-14,-3,15,17,7
-59,-30,-52,-54,-26,-15,-22,-54,7
49,14,27,-15,-7,-3,9,32,7
-49,-16,12,4,4,25,14,-34,7
-3,4,1,12,7,-18,-19,-6,7
41,4,16,57,39,12,6,19,7
17,-18,-31,-95,-87,-37,-11,-8,7
-30,32,-51,-25,-26,15,30,0,7
14,-20,-13,9,15,13,24,7,7
5,-3,-75,-21,-2,-19,-36,6,7
-48,-1,16,34,27,3,-8,-21,7
47,-2,27,20,0,-10,2,23,7
-8,3,1,-16,-3,22,16,-1,7
-54,-21,2,-24,-16,-20,-41,-35,7
22,0,-75,-48,-18,-6,15,-7,7
-5,5,56,55,11,-4,-2,32,7
24,-9,-108,-29,1,7,-9,16,7
57,31,110,34,13,28,65,24,7
-30,-6,-67,-4,0,-25,-69,-6,7
6,5,51,7,26,20,16,-9,7
-36,-9,-30,5,-34,-31,-41,-18,7
4,3,40,-44,1,5,9,13,7
-70,-40,-18,-10,-16,-2,-3,-32,7
8,8,-81,-19,5,13,26,5,7
65,34,52,19,15,7,15,24,7
-14,-36,-31,14,-6,-30,-66,-12,7
-39,33,112,82,28,13,29,-18,7
38,-11,11,-25,-4,9,-9,5,7
-3,1,-11,-18,1,6,39,30,7
-1,4,69,33,-4,-1,-15,-35,7
37,-2,-50,-20,17,-4,-34,40,7
-28,-17,58,9,-11,-4,-6,-28,7
33,22,51,5,11,11,8,-3,7
-58,4,-4,55,12,9,22,-5,7
34,-4,22,-63,-11,5,21,34,7
51,28,-102,-21,20,5,-7,9,7
-84,-27,69,31,-37,-21,-30,-42,7
20,-5,-78,-26,-7,3,19,27,7
20,19,-23,27,14,26,32,-10,7
16,2,-24,-23,-3,-16,-37,27,7
-59,-9,6,8,22,-27,-37,-12,7
-62,-15,-16,0,-4,8,29,-30,7
23,4,33,3,-21,-23,-60,-11,7
-36,15,-28,-3,-4,14,32,36,7
39,5,-90,-36,-6,31,42,-29,7
-4,9,127,22,-12,-52,-62,12,7
7,-11,-49,99,60,13,3,3,7
70,8,-74,-93,-82,-29,-4,15,7
-57,-19,45,50,13,6,-8,-32,7
117,12,-11,24,6,26,25,22,7
37,0,17,-24,-13,-27,-2,18,7
-56,-31,2,10,5,-9,-26,-27,7
-6,10,-47,-28,11,8,20,11,7
25,-20,-35,-20,7,20,24,-4,7
-4,6,-60,-30,-4,9,8,0,7
2,-6,-10,2,3,-4,16,-25,7
4,-12,7,-14,-2,13,-19,13,7
26,39,82,36,13,-10,-15,13,7
-87,-29,-63,-15,25,31,40,-15,7
20,-3,-11,-65,-59,-28,-5,21,7
39,4,34,35,12,5,-10,-31,7
-47,-18,-113,-30,-4,-23,-30,-4,7
85,31,126,67,24,16,13,38,7
1,2,47,73,21,1,-10,-9,7
-26,-26,53,-44,-7,-2,15,13,7
-28,-10,-80,-44,-24,1,-12,-21,7
-5,-7,-52,-63,-53,-22,-7,-19,7
-43,0,49,43,33,29,17,-6,7
80,0,-90,26,11,-24,-20,29,7
-40,12,53,-22,-22,5,16,-1,7
17,7,54,37,9,5,9,1,7
-14,11,38,-24,3,-8,-33,-17,7
51,1,-64,-10,7,34,62,35,7
27,-15,-65,-27,-16,-51,-69,-21,7
-21,-31,-27,12,0,-21,-20,-29,7
-8,-16,38,12,-17,-25,-29,-34,7
13,12,6,-6,7,-13,-16,16,7
3,32,96,61,18,22,32,31,7
1,10,-19,0,21,20,27,24,7
44,6,-52,-18,-7,-16,-22,17,7
-9,-16,83,-26,-39,-11,-11,-24,7
-48,53,-20,25,12,23,48,-7,7
-59,-5,54,13,-2,-18,-51,-16,7
46,-13,3,37,30,14,39,12,7
-57,20,-24,1,7,2,3,6,7
41,7,-9,-37,-15,17,29,30,7
-15,-3,-11,-5,7,-17,-12,-25,7
-35,7,22,9,3,27,61,11,7
-68,-44,2,16,-11,-36,-83,-67,7
23,-26,-26,-26,2,-20,-36,33,7
-43,6,1,32,6,30,47,27,7
6,8,-39,3,13,14,3,-39,7
21,27,52,63,19,4,13,30,7
-6,-17,-62,-85,-40,-5,-18,-35,7
-35,-23,-2,28,-14,-3,6,2,7
-50,14,42,38,38,22,25,-4,7
52,40,24,-8,-11,27,27,52,7
7,-8,-36,13,22,29,25,1,7
14,7,-39,0,-8,-30,16,2,7
23,13,57,17,-8,-15,-56,2,7
-35,-9,-48,-21,-12,-22,-30,-28,7
2,-21,-11,1,5,21,63,16,7
38,5,-26,-19,-14,3,-29,-8,7
-30,-20,-13,-26,-28,-36,-45,-28,7
111,16,-19,20,16,2,3,-17,7
-7,-8,33,9,8,-6,13,34,7
24,27,8,9,19,19,4,-18,7
45,-14,-41,-31,-2,-2,3,21,7
-20,8,65,17,-9,13,-12,-12,7
-21,-15,-63,-5,12,-5,7,-12,7
70,6,32,30,32,15,0,24,7
73,19,5,-61,-51,-7,21,40,7
8,-1,73,44,44,7,14,-11,7
-31,-39,-16,-48,-53,-4,8,-28,7
-29,4,-14,-34,-18,0,25,7,7
4,3,-42,16,27,62,63,17,7
34,-20,-82,-10,-15,-61,-58,-9,7
5,-3,-75,-21,-2,-19,-36,6,7
-48,-1,16,34,27,3,-8,-21,7
47,-2,27,20,0,-10,2,23,7
-8,3,1,-16,-3,22,16,-1,7
-54,-21,2,-24,-16,-20,-41,-35,7
22,0,-75,-48,-18,-6,15,-7,7
-5,5,56,55,11,-4,-2,32,7
24,-9,-108,-29,1,7,-9,16,7
57,31,110,34,13,28,65,24,7
-30,-6,-67,-4,0,-25,-69,-6,7
6,5,51,7,26,20,16,-9,7
-36,-9,-30,5,-34,-31,-41,-18,7
4,3,40,-44,1,5,9,13,7
-70,-40,-18,-10,-16,-2,-3,-32,7
8,8,-81,-19,5,13,26,5,7
65,34,52,19,15,7,15,24,7
-14,-36,-31,14,-6,-30,-66,-12,7
-39,33,112,82,28,13,29,-18,7
38,-11,11,-25,-4,9,-9,5,7
-3,1,-11,-18,1,6,39,30,7
-1,4,69,33,-4,-1,-15,-35,7
37,-2,-50,-20,17,-4,-34,40,7
-28,-17,58,9,-11,-4,-6,-28,7
33,22,51,5,11,11,8,-3,7
-58,4,-4,55,12,9,22,-5,7
34,-4,22,-63,-11,5,21,34,7
51,28,-102,-21,20,5,-7,9,7
-84,-27,69,31,-37,-21,-30,-42,7
20,-5,-78,-26,-7,3,19,27,7
20,19,-23,27,14,26,32,-10,7
16,2,-24,-23,-3,-16,-37,27,7
-59,-9,6,8,22,-27,-37,-12,7
-62,-15,-16,0,-4,8,29,-30,7
23,4,33,3,-21,-23,-60,-11,7
-36,15,-28,-3,-4,14,32,36,7
39,5,-90,-36,-6,31,42,-29,7
-4,9,127,22,-12,-52,-62,12,7
7,-11,-49,99,60,13,3,3,7
70,8,-74,-93,-82,-29,-4,15,7
-57,-19,45,50,13,6,-8,-32,7
117,12,-11,24,6,26,25,22,7
37,0,17,-24,-13,-27,-2,18,7
-56,-31,2,10,5,-9,-26,-27,7
-6,10,-47,-28,11,8,20,11,7
25,-20,-35,-20,7,20,24,-4,7
-4,6,-60,-30,-4,9,8,0,7
2,-6,-10,2,3,-4,16,-25,7
4,-12,7,-14,-2,13,-19,13,7
26,39,82,36,13,-10,-15,13,7
-87,-29,-63,-15,25,31,40,-15,7
20,-3,-11,-65,-59,-28,-5,21,7
39,4,34,35,12,5,-10,-31,7
-47,-18,-113,-30,-4,-23,-30,-4,7
85,31,126,67,24,16,13,38,7
1,2,47,73,21,1,-10,-9,7
-26,-26,53,-44,-7,-2,15,13,7
-28,-10,-80,-44,-24,1,-12,-21,7
-5,-7,-52,-63,-53,-22,-7,-19,7
-43,0,49,43,33,29,17,-6,7
80,0,-90,26,11,-24,-20,29,7
-40,12,53,-22,-22,5,16,-1,7
17,7,54,37,9,5,9,1,7
-14,11,38,-24,3,-8,-33,-17,7
51,1,-64,-10,7,34,62,35,7
27,-15,-65,-27,-16,-51,-69,-21,7
-21,-31,-27,12,0,-21,-20,-29,7
-8,-16,38,12,-17,-25,-29,-34,7
13,12,6,-6,7,-13,-16,16,7
3,32,96,61,18,22,32,31,7
1,10,-19,0,21,20,27,24,7
44,6,-52,-18,-7,-16,-22,17,7
-9,-16,83,-26,-39,-11,-11,-24,7
-48,53,-20,25,12,23,48,-7,7
-59,-5,54,13,-2,-18,-51,-16,7
46,-13,3,37,30,14,39,12,7
-57,20,-24,1,7,2,3,6,7
41,7,-9,-37,-15,17,29,30,7
-15,-3,-11,-5,7,-17,-12,-25,7
-35,7,22,9,3,27,61,11,7
-68,-44,2,16,-11,-36,-83,-67,7
23,-26,-26,-26,2,-20,-36,33,7
-43,6,1,32,6,30,47,27,7
6,8,-39,3,13,14,3,-39,7
21,27,52,63,19,4,13,30,7
-6,-17,-62,-85,-40,-5,-18,-35,7
-35,-23,-2,28,-14,-3,6,2,7
-50,14,42,38,38,22,25,-4,7
52,40,24,-8,-11,27,27,52,7
7,-8,-36,13,22,29,25,1,7
14,7,-39,0,-8,-30,16,2,7
23,13,57,17,-8,-15,-56,2,7
-35,-9,-48,-21,-12,-22,-30,-28,7
2,-21,-11,1,5,21,63,16,7
38,5,-26,-19,-14,3,-29,-8,7
-30,-20,-13,-26,-28,-36,-45,-28,7
111,16,-19,20,16,2,3,-17,7
-7,-8,33,9,8,-6,13,34,7
24,27,8,9,19,19,4,-18,7
45,-14,-41,-31,-2,-2,3,21,7
-20,8,65,17,-9,13,-12,-12,7
-21,-15,-63,-5,12,-5,7,-12,7
70,6,32,30,32,15,0,24,7
73,19,5,-61,-51,-7,21,40,7
8,-1,73,44,44,7,14,-11,7
-31,-39,-16,-48,-53,-4,8,-28,7
-29,4,-14,-34,-18,0,25,7,7
4,3,-42,16,27,62,63,17,7
34,-20,-82,-10,-15,-61,-58,-9,7
3,16,30,10,6,0,15,1,7
22,-12,26,-9,-9,22,37,-17,7
-13,10,-11,-1,-1,-1,10,4,7
-16,7,-6,-9,3,19,33,40,7
-42,-12,-31,-5,29,13,-4,-29,7
34,-14,-39,-30,-32,-29,-28,6,7
-43,3,55,38,16,-29,-48,-29,7
-6,-3,-59,-49,-35,28,55,1,7
-17,-14,36,49,9,-27,-78,2,7
66,25,51,-22,24,45,39,27,7
-92,-45,-57,-37,-30,-18,-7,-57,7
-25,-11,-42,8,-7,-71,-71,19,7
-3,6,76,42,29,74,99,-11,7
9,6,-73,-57,-49,-80,-98,-31,7
82,5,26,42,38,33,46,59,7
-19,-25,43,-35,-33,-31,-34,-9,7
20,31,11,30,10,49,58,10,7
-49,-8,-24,49,20,-103,-123,-34,7
22,-16,-81,-77,-78,-6,33,-2,7
42,47,18,42,33,39,29,26,7
-1,4,69,33,-4,-1,-15,-35,7
37,-2,-50,-20,17,-4,-34,40,7
-28,-17,58,9,-11,-4,-6,-28,7
33,22,51,5,11,11,8,-3,7
-58,4,-4,55,12,9,22,-5,7
34,-4,22,-63,-11,5,21,34,7
51,28,-102,-21,20,5,-7,9,7
-84,-27,69,31,-37,-21,-30,-42,7
20,-5,-78,-26,-7,3,19,27,7
20,19,-23,27,14,26,32,-10,7
16,2,-24,-23,-3,-16,-37,27,7
-59,-9,6,8,22,-27,-37,-12,7
-62,-15,-16,0,-4,8,29,-30,7
23,4,33,3,-21,-23,-60,-11,7
-36,15,-28,-3,-4,14,32,36,7
39,5,-90,-36,-6,31,42,-29,7
-4,9,127,22,-12,-52,-62,12,7
7,-11,-49,99,60,13,3,3,7
70,8,-74,-93,-82,-29,-4,15,7
-57,-19,45,50,13,6,-8,-32,7
117,12,-11,24,6,26,25,22,7
37,0,17,-24,-13,-27,-2,18,7
-56,-31,2,10,5,-9,-26,-27,7
-6,10,-47,-28,11,8,20,11,7
25,-20,-35,-20,7,20,24,-4,7
-4,6,-60,-30,-4,9,8,0,7
2,-6,-10,2,3,-4,16,-25,7
4,-12,7,-14,-2,13,-19,13,7
26,39,82,36,13,-10,-15,13,7
-87,-29,-63,-15,25,31,40,-15,7
20,-3,-11,-65,-59,-28,-5,21,7
39,4,34,35,12,5,-10,-31,7
-47,-18,-113,-30,-4,-23,-30,-4,7
85,31,126,67,24,16,13,38,7
1,2,47,73,21,1,-10,-9,7
-26,-26,53,-44,-7,-2,15,13,7
-28,-10,-80,-44,-24,1,-12,-21,7
-5,-7,-52,-63,-53,-22,-7,-19,7
-43,0,49,43,33,29,17,-6,7
80,0,-90,26,11,-24,-20,29,7
-40,12,53,-22,-22,5,16,-1,7
17,7,54,37,9,5,9,1,7
-14,11,38,-24,3,-8,-33,-17,7
51,1,-64,-10,7,34,62,35,7
27,-15,-65,-27,-16,-51,-69,-21,7
-21,-31,-27,12,0,-21,-20,-29,7
-8,-16,38,12,-17,-25,-29,-34,7
13,12,6,-6,7,-13,-16,16,7
3,32,96,61,18,22,32,31,7
1,10,-19,0,21,20,27,24,7
44,6,-52,-18,-7,-16,-22,17,7
-9,-16,83,-26,-39,-11,-11,-24,7
-48,53,-20,25,12,23,48,-7,7
-59,-5,54,13,-2,-18,-51,-16,7
46,-13,3,37,30,14,39,12,7
-57,20,-24,1,7,2,3,6,7
41,7,-9,-37,-15,17,29,30,7
-15,-3,-11,-5,7,-17,-12,-25,7
-35,7,22,9,3,27,61,11,7
-68,-44,2,16,-11,-36,-83,-67,7
23,-26,-26,-26,2,-20,-36,33,7
-43,6,1,32,6,30,47,27,7
6,8,-39,3,13,14,3,-39,7
21,27,52,63,19,4,13,30,7
-6,-17,-62,-85,-40,-5,-18,-35,7
-35,-23,-2,28,-14,-3,6,2,7
-50,14,42,38,38,22,25,-4,7
52,40,24,-8,-11,27,27,52,7
7,-8,-36,13,22,29,25,1,7
14,7,-39,0,-8,-30,16,2,7
23,13,57,17,-8,-15,-56,2,7
-35,-9,-48,-21,-12,-22,-30,-28,7
2,-21,-11,1,5,21,63,16,7
38,5,-26,-19,-14,3,-29,-8,7
-30,-20,-13,-26,-28,-36,-45,-28,7
111,16,-19,20,16,2,3,-17,7
-7,-8,33,9,8,-6,13,34,7
24,27,8,9,19,19,4,-18,7
45,-14,-41,-31,-2,-2,3,21,7
-20,8,65,17,-9,13,-12,-12,7
-21,-15,-63,-5,12,-5,7,-12,7
70,6,32,30,32,15,0,24,7
73,19,5,-61,-51,-7,21,40,7
8,-1,73,44,44,7,14,-11,7
-31,-39,-16,-48,-53,-4,8,-28,7
-29,4,-14,-34,-18,0,25,7,7
4,3,-42,16,27,62,63,17,7
34,-20,-82,-10,-15,-61,-58,-9,7
3,16,30,10,6,0,15,1,7
22,-12,26,-9,-9,22,37,-17,7
-13,10,-11,-1,-1,-1,10,4,7
-16,7,-6,-9,3,19,33,40,7
-42,-12,-31,-5,29,13,-4,-29,7
34,-14,-39,-30,-32,-29,-28,6,7
-43,3,55,38,16,-29,-48,-29,7
-6,-3,-59,-49,-35,28,55,1,7
-17,-14,36,49,9,-27,-78,2,7
66,25,51,-22,24,45,39,27,7
-92,-45,-57,-37,-30,-18,-7,-57,7
-25,-11,-42,8,-7,-71,-71,19,7
-3,6,76,42,29,74,99,-11,7
9,6,-73,-57,-49,-80,-98,-31,7
82,5,26,42,38,33,46,59,7
-19,-25,43,-35,-33,-31,-34,-9,7
20,31,11,30,10,49,58,10,7
-49,-8,-24,49,20,-103,-123,-34,7
22,-16,-81,-77,-78,-6,33,-2,7
42,47,18,42,33,39,29,26,7
4,-9,66,-17,4,-9,-17,2,7
-55,-26,34,27,-7,50,55,-17,7
22,21,-35,-10,3,-16,-26,10,7
-6,-4,-6,2,9,15,24,-3,7
34,-4,-23,8,12,-14,-40,1,7
-32,-10,-23,-24,31,57,73,31,7
-83,-45,13,-10,-56,-85,-89,-97,7
-1,-13,13,-22,0,26,15,-8,7
29,11,0,10,10,-2,27,-27,7
10,16,44,45,29,-3,-8,55,7
11,17,-31,-16,16,23,18,7,7
11,-28,59,18,9,31,54,37,7
31,57,2,3,-11,-19,-27,-33,7
8,-28,-24,-2,-6,14,4,-32,7
17,11,15,9,32,10,-10,23,7
25,0,-94,33,8,4,24,22,7
-76,4,6,-42,-11,-6,0,-17,7
19,-23,-53,-51,-49,-16,-18,-14,7
21,43,73,90,34,4,-9,19,7
13,10,-85,-25,14,47,55,-8,7
25,-20,-35,-20,7,20,24,-4,7
-4,6,-60,-30,-4,9,8,0,7
2,-6,-10,2,3,-4,16,-25,7
4,-12,7,-14,-2,13,-19,13,7
26,39,82,36,13,-10,-15,13,7
-87,-29,-63,-15,25,31,40,-15,7
20,-3,-11,-65,-59,-28,-5,21,7
39,4,34,35,12,5,-10,-31,7
-47,-18,-113,-30,-4,-23,-30,-4,7
85,31,126,67,24,16,13,38,7
1,2,47,73,21,1,-10,-9,7
-26,-26,53,-44,-7,-2,15,13,7
-28,-10,-80,-44,-24,1,-12,-21,7
-5,-7,-52,-63,-53,-22,-7,-19,7
-43,0,49,43,33,29,17,-6,7
80,0,-90,26,11,-24,-20,29,7
-40,12,53,-22,-22,5,16,-1,7
17,7,54,37,9,5,9,1,7
-14,11,38,-24,3,-8,-33,-17,7
51,1,-64,-10,7,34,62,35,7
27,-15,-65,-27,-16,-51,-69,-21,7
-21,-31,-27,12,0,-21,-20,-29,7
-8,-16,38,12,-17,-25,-29,-34,7
13,12,6,-6,7,-13,-16,16,7
3,32,96,61,18,22,32,31,7
1,10,-19,0,21,20,27,24,7
44,6,-52,-18,-7,-16,-22,17,7
-9,-16,83,-26,-39,-11,-11,-24,7
-48,53,-20,25,12,23,48,-7,7
-59,-5,54,13,-2,-18,-51,-16,7
46,-13,3,37,30,14,39,12,7
-57,20,-24,1,7,2,3,6,7
41,7,-9,-37,-15,17,29,30,7
-15,-3,-11,-5,7,-17,-12,-25,7
-35,7,22,9,3,27,61,11,7
-68,-44,2,16,-11,-36,-83,-67,7
23,-26,-26,-26,2,-20,-36,33,7
-43,6,1,32,6,30,47,27,7
6,8,-39,3,13,14,3,-39,7
21,27,52,63,19,4,13,30,7
-6,-17,-62,-85,-40,-5,-18,-35,7
-35,-23,-2,28,-14,-3,6,2,7
-50,14,42,38,38,22,25,-4,7
52,40,24,-8,-11,27,27,52,7
7,-8,-36,13,22,29,25,1,7
14,7,-39,0,-8,-30,16,2,7
23,13,57,17,-8,-15,-56,2,7
-35,-9,-48,-21,-12,-22,-30,-28,7
2,-21,-11,1,5,21,63,16,7
38,5,-26,-19,-14,3,-29,-8,7
-30,-20,-13,-26,-28,-36,-45,-28,7
111,16,-19,20,16,2,3,-17,7
-7,-8,33,9,8,-6,13,34,7
24,27,8,9,19,19,4,-18,7
45,-14,-41,-31,-2,-2,3,21,7
-20,8,65,17,-9,13,-12,-12,7
-21,-15,-63,-5,12,-5,7,-12,7
70,6,32,30,32,15,0,24,7
73,19,5,-61,-51,-7,21,40,7
8,-1,73,44,44,7,14,-11,7
-31,-39,-16,-48,-53,-4,8,-28,7
-29,4,-14,-34,-18,0,25,7,7
4,3,-42,16,27,62,63,17,7
34,-20,-82,-10,-15,-61,-58,-9,7
3,16,30,10,6,0,15,1,7
22,-12,26,-9,-9,22,37,-17,7
-13,10,-11,-1,-1,-1,10,4,7
-16,7,-6,-9,3,19,33,40,7
-42,-12,-31,-5,29,13,-4,-29,7
34,-14,-39,-30,-32,-29,-28,6,7
-43,3,55,38,16,-29,-48,-29,7
